#"time"      "diagonal of the density matrix"
0.00000000  0.00000000000000e+00 1.00000000000000e+00
0.01000000  3.99137667754450e-16 1.00000000000006e+00
0.02000000  2.55267849261749e-14 1.00000000000009e+00
0.03000000  4.33983300965498e-13 9.99999999999735e-01
0.04000000  3.66895952561618e-12 9.99999999996556e-01
0.05000000  2.01295145641900e-11 9.99999999980152e-01
0.06000000  8.25596154319791e-11 9.99999999917778e-01
0.07000000  2.75038786315686e-10 9.99999999725355e-01
0.08000000  7.84275247864022e-10 9.99999999216175e-01
0.09000000  1.98242993673800e-09 9.99999998018076e-01
0.10000000  4.55211941398665e-09 9.99999995448443e-01
0.11000000  9.66553992635416e-09 9.99999990335079e-01
0.12000000  1.92308073504880e-08 9.99999980769868e-01
0.13000000  3.62196031830281e-08 9.99999963781128e-01
0.14000000  6.50910412106428e-08 9.99999934909747e-01
0.15000000  1.12327310508829e-07 9.99999887673534e-01
0.16000000  1.87097097026732e-07 9.99999812903803e-01
0.17000000  3.02063028910026e-07 9.99999697937928e-01
0.18000000  4.74349422316133e-07 9.99999525651591e-01
0.19000000  7.26686419008143e-07 9.99999273314650e-01
0.20000000  1.08874620055869e-06 9.99998911254925e-01
0.21000000  1.59868633454145e-06 9.99998401314848e-01
0.22000000  2.30491445556103e-06 9.99997695086783e-01
0.23000000  3.26808741024993e-06 9.99996731913884e-01
0.24000000  4.56335670427615e-06 9.99995436644647e-01
0.25000000  6.28287058672872e-06 9.99993717130820e-01
0.26000000  8.53854140066693e-06 9.99991461460063e-01
0.27000000  1.14650849276852e-05 9.99988534916592e-01
0.28000000  1.52233363704257e-05 9.99984776665206e-01
0.29000000  2.00038453631715e-05 9.99979996156269e-01
0.30000000  2.60307499917374e-05 9.99973969251697e-01
0.31000000  3.35659272561624e-05 9.99966434074489e-01
0.32000000  4.29134147409667e-05 9.99957086587060e-01
0.33000000  5.44240954870679e-05 9.99945575906370e-01
0.34000000  6.85006352071330e-05 9.99931499366707e-01
0.35000000  8.56026580735383e-05 9.99914397343897e-01
0.36000000  1.06252144357447e-04 9.99893747857669e-01
0.37000000  1.31039030231795e-04 9.99868960971851e-01
0.38000000  1.60626987093779e-04 9.99839373015045e-01
0.39000000  1.95759354837713e-04 9.99804240647358e-01
0.40000000  2.37265200641155e-04 9.99762734801610e-01
0.41000000  2.86065472040174e-04 9.99713934530268e-01
0.42000000  3.43179210387788e-04 9.99656820791976e-01
0.43000000  4.09729788236776e-04 9.99590270214184e-01
0.44000000  4.86951131787602e-04 9.99513048870689e-01
0.45000000  5.76193887316875e-04 9.99423806115216e-01
0.46000000  6.78931488473504e-04 9.99321068514116e-01
0.47000000  7.96766079519331e-04 9.99203233923126e-01
0.48000000  9.31434248018433e-04 9.99068565754683e-01
0.49000000  1.08481251916276e-03 9.98915187483595e-01
0.50000000  1.25892256287850e-03 9.98741077439936e-01
0.51000000  1.45593606410264e-03 9.98544063938768e-01
0.52000000  1.67817920616689e-03 9.98321820796760e-01
0.53000000  1.92813671708719e-03 9.98071863285896e-01
0.54000000  2.20845542874292e-03 9.97791544574297e-01
0.55000000  2.52194729944671e-03 9.97478052703649e-01
0.56000000  2.87159185126100e-03 9.97128408151891e-01
0.57000000  3.26053797461289e-03 9.96739462028596e-01
0.58000000  3.69210505429756e-03 9.96307894948967e-01
0.59000000  4.16978337284035e-03 9.95830216630481e-01
0.60000000  4.69723374940567e-03 9.95302766253972e-01
0.61000000  5.27828637499209e-03 9.94721713628441e-01
0.62000000  5.91693880752914e-03 9.94083061195961e-01
0.63000000  6.61735309368250e-03 9.93382646909864e-01
0.64000000  7.38385198766816e-03 9.92616148015934e-01
0.65000000  8.22091424115881e-03 9.91779085762500e-01
0.66000000  9.13316894242010e-03 9.90866831061295e-01
0.67000000  1.01253888871223e-02 9.89874611116649e-01
0.68000000  1.12024829678143e-02 9.88797517036013e-01
0.69000000  1.23694875737987e-02 9.87630512430085e-01
0.70000000  1.36315569980867e-02 9.86368443005853e-01
0.71000000  1.49939528532129e-02 9.85006047150783e-01
0.72000000  1.64620325029252e-02 9.83537967501127e-01
0.73000000  1.80412365221116e-02 9.81958763481997e-01
0.74000000  1.97370752027453e-02 9.80262924801420e-01
0.75000000  2.15551141291011e-02 9.78444885875120e-01
0.76000000  2.35009588509846e-02 9.76499041153293e-01
0.77000000  2.55802386891899e-02 9.74419761315144e-01
0.78000000  2.77985897128331e-02 9.72201410291557e-01
0.79000000  3.01616369335617e-02 9.69838363070885e-01
0.80000000  3.26749757668860e-02 9.67325024237617e-01
0.81000000  3.53441528159866e-02 9.64655847188573e-01
0.82000000  3.81746460382882e-02 9.61825353966328e-01
0.83000000  4.11718443598245e-02 9.58828155644847e-01
0.84000000  4.43410268069289e-02 9.55658973197799e-01
0.85000000  4.76873412290316e-02 9.52312658775753e-01
0.86000000  5.12157826903057e-02 9.48784217314535e-01
0.87000000  5.49311716115578e-02 9.45068828393339e-01
0.88000000  5.88381317470719e-02 9.41161868257881e-01
0.89000000  6.29410680840714e-02 9.37058931920938e-01
0.90000000  6.72441447550412e-02 9.32755855250025e-01
0.91000000  7.17512630553251e-02 9.28248736949797e-01
0.92000000  7.64660396601790e-02 9.23533960344999e-01
0.93000000  8.13917851367842e-02 9.18608214868450e-01
0.94000000  8.65314828476146e-02 9.13468517157677e-01
0.95000000  9.18877683419799e-02 9.08112231663367e-01
0.96000000  9.74629093325366e-02 9.02537090672867e-01
0.97000000  1.03258786353058e-01 8.96741213652402e-01
0.98000000  1.09276874192785e-01 8.90723125812731e-01
0.99000000  1.15518224201238e-01 8.84481775804334e-01
1.00000000  1.21983447555461e-01 8.78016552450167e-01
1.01000000  1.28672699579282e-01 8.71327300426403e-01
1.02000000  1.35585665201353e-01 8.64414334804388e-01
1.03000000  1.42721545635449e-01 8.57278454370349e-01
1.04000000  1.50079046362766e-01 8.49920953643088e-01
1.05000000  1.57656366491841e-01 8.42343633514069e-01
1.06000000  1.65451189567152e-01 8.34548810438814e-01
1.07000000  1.73460675892526e-01 8.26539324113497e-01
1.08000000  1.81681456430168e-01 8.18318543575911e-01
1.09000000  1.90109628330501e-01 8.09890371675634e-01
1.10000000  1.98740752142012e-01 8.01259247864179e-01
1.11000000  2.07569850744046e-01 7.92430149262202e-01
1.12000000  2.16591410038987e-01 7.83408589967317e-01
1.13000000  2.25799381433457e-01 7.74200618572903e-01
1.14000000  2.35187186131243e-01 7.64812813875174e-01
1.15000000  2.44747721253472e-01 7.55252278753000e-01
1.16000000  2.54473367794322e-01 7.45526632212207e-01
1.17000000  2.64356000413101e-01 7.35643999593485e-01
1.18000000  2.74386999056112e-01 7.25613000950530e-01
1.19000000  2.84557262394188e-01 7.15442737612511e-01
1.20000000  2.94857223054249e-01 7.05142776952505e-01
1.21000000  3.05276864615796e-01 6.94723135391014e-01
1.22000000  3.15805740335771e-01 6.84194259671096e-01
1.23000000  3.26432993557935e-01 6.73567006448988e-01
1.24000000  3.37147379755693e-01 6.62852620251287e-01
1.25000000  3.47937290150269e-01 6.52062709856767e-01
1.26000000  3.58790776839298e-01 6.41209223167794e-01
1.27000000  3.69695579364289e-01 6.30304420642860e-01
1.28000000  3.80639152639050e-01 6.19360847368155e-01
1.29000000  3.91608696155131e-01 6.08391303852131e-01
1.30000000  4.02591184374535e-01 5.97408815632782e-01
1.31000000  4.13573398214583e-01 5.86426601792790e-01
1.32000000  4.24541957524723e-01 5.75458042482707e-01
1.33000000  4.35483354450442e-01 5.64516645557045e-01
1.34000000  4.46383987575161e-01 5.53616012432382e-01
1.35000000  4.57230196727158e-01 5.42769803280441e-01
1.36000000  4.68008298335188e-01 5.31991701672467e-01
1.37000000  4.78704621213520e-01 5.21295378794192e-01
1.38000000  4.89305542654644e-01 5.10694457353124e-01
1.39000000  4.99797524705957e-01 5.00202475301867e-01
1.40000000  5.10167150505167e-01 4.89832849502713e-01
1.41000000  5.20401160548241e-01 4.79598839459696e-01
1.42000000  5.30486488763154e-01 4.69513511244839e-01
1.43000000  5.40410298262745e-01 4.59589701745304e-01
1.44000000  5.50160016650455e-01 4.49839983357650e-01
1.45000000  5.59723370753740e-01 4.40276629254421e-01
1.46000000  5.69088420661452e-01 4.30911579346766e-01
1.47000000  5.78243592943438e-01 4.21756407064836e-01
1.48000000  5.87177712933098e-01 4.12822287075233e-01
1.49000000  5.95880035956546e-01 4.04119964051841e-01
1.50000000  6.04340277395426e-01 3.95659722613017e-01
1.51000000  6.12548641474230e-01 3.87451358534269e-01
1.52000000  6.20495848667254e-01 3.79504151341302e-01
1.53000000  6.28173161624954e-01 3.71826838383658e-01
1.54000000  6.35572409524537e-01 3.64427590484131e-01
1.55000000  6.42686010755025e-01 3.57313989253700e-01
1.56000000  6.49506993852788e-01 3.50493006155993e-01
1.57000000  6.56029016609661e-01 3.43970983399177e-01
1.58000000  6.62246383282105e-01 3.37753616726789e-01
1.59000000  6.68154059836565e-01 3.31845940172385e-01
1.60000000  6.73747687173073e-01 3.26252312835933e-01
1.61000000  6.79023592276279e-01 3.20976407732783e-01
1.62000000  6.83978797250429e-01 3.16021202758689e-01
1.63000000  6.88611026202282e-01 3.11388973806893e-01
1.64000000  6.92918709943611e-01 3.07081290065620e-01
1.65000000  6.96900988492656e-01 3.03099011516632e-01
1.66000000  7.00557711361734e-01 2.99442288647609e-01
1.67000000  7.03889435626075e-01 2.96110564383325e-01
1.68000000  7.06897421776848e-01 2.93102578232609e-01
1.69000000  7.09583627369239e-01 2.90416372640274e-01
1.70000000  7.11950698484307e-01 2.88049301525262e-01
1.71000000  7.14001959031107e-01 2.85998040978518e-01
1.72000000  7.15741397923316e-01 2.84258602086365e-01
1.73000000  7.17173654172152e-01 2.82826345837586e-01
1.74000000  7.18303999944825e-01 2.81696000064969e-01
1.75000000  7.19138321645052e-01 2.80861678364798e-01
1.76000000  7.19683099079207e-01 2.80316900930700e-01
1.77000000  7.19945382778564e-01 2.80054617231399e-01
1.78000000  7.19932769554692e-01 2.80067230455327e-01
1.79000000  7.19653376371390e-01 2.80346623638685e-01
1.80000000  7.19115812622646e-01 2.80884187387485e-01
1.81000000  7.18329150911796e-01 2.81670849098393e-01
1.82000000  7.17302896432525e-01 2.82697103577719e-01
1.83000000  7.16046955057404e-01 2.83953044952897e-01
1.84000000  7.14571600244343e-01 2.85428399766014e-01
1.85000000  7.12887438875695e-01 2.87112561134719e-01
1.86000000  7.11005376148662e-01 2.88994623861808e-01
1.87000000  7.08936579639157e-01 2.91063420371368e-01
1.88000000  7.06692442664398e-01 2.93307557346184e-01
1.89000000  7.04284547072140e-01 2.95715452938499e-01
1.90000000  7.01724625586718e-01 2.98275374423977e-01
1.91000000  6.99024523843779e-01 3.00975476166972e-01
1.92000000  6.96196162246953e-01 3.03803837763854e-01
1.93000000  6.93251497780514e-01 3.06748502230349e-01
1.94000000  6.90202485912486e-01 3.09797514098433e-01
1.95000000  6.87061042722543e-01 3.12938957288433e-01
1.96000000  6.83839007388493e-01 3.16160992622540e-01
1.97000000  6.80548105164099e-01 3.19451894846989e-01
1.98000000  6.77199910979485e-01 3.22800089031660e-01
1.99000000  6.73805813793382e-01 3.26194186217820e-01
2.00000000  6.70376981824067e-01 3.29623018187190e-01
2.01000000  6.66924328782922e-01 3.33075671228392e-01
2.02000000  6.63458481231192e-01 3.36541518780178e-01
2.03000000  6.59989747176779e-01 3.40010252834647e-01
2.04000000  6.56528086023625e-01 3.43471913987858e-01
2.05000000  6.53083079981656e-01 3.46916920029882e-01
2.06000000  6.49663907040195e-01 3.50336092971400e-01
2.07000000  6.46279315602292e-01 3.53720684409359e-01
2.08000000  6.42937600871658e-01 3.57062399140050e-01
2.09000000  6.39646583077666e-01 3.60353416934098e-01
2.10000000  6.36413587617394e-01 3.63586412394426e-01
2.11000000  6.33245427186854e-01 3.66754572825023e-01
2.12000000  6.30148385966382e-01 3.69851614045552e-01
2.13000000  6.27128205917799e-01 3.72871794094190e-01
2.14000000  6.24190075243233e-01 3.75809924768813e-01
2.15000000  6.21338619047610e-01 3.78661380964492e-01
2.16000000  6.18577892238733e-01 3.81422107773426e-01
2.17000000  6.15911374690543e-01 3.84088625321672e-01
2.18000000  6.13341968686753e-01 3.86658031325518e-01
2.19000000  6.10871998653462e-01 3.89128001358865e-01
2.20000000  6.08503213180716e-01 3.91496786831667e-01
2.21000000  6.06236789324263e-01 3.93763210688177e-01
2.22000000  6.04073339169987e-01 3.95926660842509e-01
2.23000000  6.02012918634781e-01 3.97987081377771e-01
2.24000000  6.00055038468863e-01 3.99944961543745e-01
2.25000000  5.98198677415917e-01 4.01801322596748e-01
2.26000000  5.96442297478849e-01 4.03557702533872e-01
2.27000000  5.94783861230553e-01 4.05216138782224e-01
2.28000000  5.93220851100753e-01 4.06779148912080e-01
2.29000000  5.91750290561982e-01 4.08249709450908e-01
2.30000000  5.90368767129843e-01 4.09631232883103e-01
2.31000000  5.89072457085165e-01 4.10927542927837e-01
2.32000000  5.87857151818326e-01 4.12142848194733e-01
2.33000000  5.86718285689068e-01 4.13281714324047e-01
2.34000000  5.85650965288508e-01 4.14349034724663e-01
2.35000000  5.84649999983818e-01 4.15350000029410e-01
2.36000000  5.83709933620211e-01 4.16290066393073e-01
2.37000000  5.82825077249530e-01 4.17174922763810e-01
2.38000000  5.81989542749807e-01 4.18010457263590e-01
2.39000000  5.81197277195743e-01 4.18802722817710e-01
2.40000000  5.80442097836209e-01 4.19557902177299e-01
2.41000000  5.79717727531474e-01 4.20282272482091e-01
2.42000000  5.79017830500107e-01 4.20982169513515e-01
2.43000000  5.78336048223298e-01 4.21663951790380e-01
2.44000000  5.77666035352734e-01 4.22333964661001e-01
2.45000000  5.77001495467150e-01 4.22998504546640e-01
2.46000000  5.76336216522372e-01 4.23663783491475e-01
2.47000000  5.75664105839849e-01 4.24335894174053e-01
2.48000000  5.74979224479681e-01 4.25020775534279e-01
2.49000000  5.74275820845609e-01 4.25724179168406e-01
2.50000000  5.73548363371750e-01 4.26451636642322e-01
2.51000000  5.72791572143608e-01 4.27208427870520e-01
2.52000000  5.72000449309508e-01 4.27999550704677e-01
2.53000000  5.71170308142644e-01 4.28829691871596e-01
2.54000000  5.70296800618807e-01 4.29703199395491e-01
2.55000000  5.69375943380162e-01 4.30624056634191e-01
2.56000000  5.68404141961544e-01 4.31595858052865e-01
2.57000000  5.67378213162227e-01 4.32621786852239e-01
2.58000000  5.66295405453381e-01 4.33704594561141e-01
2.59000000  5.65153417319051e-01 4.34846582695528e-01
2.60000000  5.63950413436745e-01 4.36049586577890e-01
2.61000000  5.62685038612430e-01 4.37314961402261e-01
2.62000000  5.61356429393859e-01 4.38643570620889e-01
2.63000000  5.59964223295779e-01 4.40035776719024e-01
2.64000000  5.58508565580511e-01 4.41491434434349e-01
2.65000000  5.56990113547698e-01 4.43009886467218e-01
2.66000000  5.55410038297681e-01 4.44589961717292e-01
2.67000000  5.53770023943784e-01 4.46229976071245e-01
2.68000000  5.52072264259943e-01 4.47927735755142e-01
2.69000000  5.50319456761339e-01 4.49680543253803e-01
2.70000000  5.48514794227110e-01 4.51485205788088e-01
2.71000000  5.46661953685672e-01 4.53338046329582e-01
2.72000000  5.44765082894649e-01 4.55234917120661e-01
2.73000000  5.42828784358885e-01 4.57171215656482e-01
2.74000000  5.40858096941353e-01 4.59141903074070e-01
2.75000000  5.38858475133044e-01 4.61141524882435e-01
2.76000000  5.36835766058928e-01 4.63164233956607e-01
2.77000000  5.34796184307910e-01 4.65203815707682e-01
2.78000000  5.32746284685207e-01 4.67253715330441e-01
2.79000000  5.30692932995744e-01 4.69307067019960e-01
2.80000000  5.28643274976930e-01 4.71356725038831e-01
2.81000000  5.26604703508533e-01 4.73395296507284e-01
2.82000000  5.24584824236173e-01 4.75415175779701e-01
2.83000000  5.22591419753287e-01 4.77408580262642e-01
2.84000000  5.20632412494125e-01 4.79367587521861e-01
2.85000000  5.18715826497417e-01 4.81284173518625e-01
2.86000000  5.16849748206823e-01 4.83150251809275e-01
2.87000000  5.15042286479956e-01 4.84957713536198e-01
2.88000000  5.13301531982813e-01 4.86698468033398e-01
2.89000000  5.11635516150654e-01 4.88364483865613e-01
2.90000000  5.10052169899823e-01 4.89947830116500e-01
2.91000000  5.08559282277626e-01 4.91440717738754e-01
2.92000000  5.07164459239162e-01 4.92835540777274e-01
2.93000000  5.05875082740969e-01 4.94124917275523e-01
2.94000000  5.04698270341385e-01 4.95301729675163e-01
2.95000000  5.03640835496746e-01 4.96359164519859e-01
2.96000000  5.02709248740859e-01 4.97290751275802e-01
2.97000000  5.01909599932644e-01 4.98090400084073e-01
2.98000000  5.01247561753402e-01 4.98752438263372e-01
2.99000000  5.00728354630877e-01 4.99271645385953e-01
3.00000000  5.00356713262160e-01 4.99643286754727e-01
3.01000000  5.00136854901486e-01 4.99863145115457e-01
3.02000000  5.00072449572215e-01 4.99927550444784e-01
3.03000000  5.00166592354693e-01 4.99833407662362e-01
3.04000000  5.00421777893399e-01 4.99578222123712e-01
3.05000000  5.00839877257701e-01 4.99160122759467e-01
3.06000000  5.01422117280844e-01 4.98577882736381e-01
3.07000000  5.02169062491407e-01 4.97830937525874e-01
3.08000000  5.03080599740495e-01 4.96919400276842e-01
3.09000000  5.04155925616418e-01 4.95844074400975e-01
3.10000000  5.05393536726586e-01 4.94606463290863e-01
3.11000000  5.06791222913902e-01 4.93208777103604e-01
3.12000000  5.08346063462059e-01 4.91653936555503e-01
3.13000000  5.10054426331016e-01 4.89945573686602e-01
3.14000000  5.11911970450427e-01 4.88088029567247e-01
3.15000000  5.13913651085209e-01 4.86086348932522e-01
3.16000000  5.16053728273613e-01 4.83946271744174e-01
3.17000000  5.18325778324310e-01 4.81674221693533e-01
3.18000000  5.20722708345146e-01 4.79277291672754e-01
3.19000000  5.23236773762399e-01 4.76763226255557e-01
3.20000000  5.25859598775704e-01 4.74140401242308e-01
3.21000000  5.28582199680289e-01 4.71417800337779e-01
3.22000000  5.31395010974981e-01 4.68604989043144e-01
3.23000000  5.34287914161472e-01 4.65712085856709e-01
3.24000000  5.37250269127871e-01 4.62749730890367e-01
3.25000000  5.40270947997421e-01 4.59729052020872e-01
3.26000000  5.43338371311773e-01 4.56661628706576e-01
3.27000000  5.46440546407123e-01 4.53559453611283e-01
3.28000000  5.49565107831199e-01 4.50434892187264e-01
3.29000000  5.52699359639345e-01 4.47300640379174e-01
3.30000000  5.55830319398967e-01 4.44169680619608e-01
3.31000000  5.58944763723381e-01 4.41055236295250e-01
3.32000000  5.62029275148708e-01 4.37970724869980e-01
3.33000000  5.65070290160879e-01 4.34929709857865e-01
3.34000000  5.68054148174138e-01 4.31945851844662e-01
3.35000000  5.70967141257664e-01 4.29032858761193e-01
3.36000000  5.73795564403073e-01 4.26204435615840e-01
3.37000000  5.76525766122716e-01 4.23474233896253e-01
3.38000000  5.79144199166737e-01 4.20855800852289e-01
3.39000000  5.81637471145951e-01 4.18362528873130e-01
3.40000000  5.83992394847651e-01 4.16007605171487e-01
3.41000000  5.86196038032491e-01 4.13803961986703e-01
3.42000000  5.88235772502628e-01 4.11764227516622e-01
3.43000000  5.90099322234309e-01 4.09900677784998e-01
3.44000000  5.91774810372032e-01 4.08225189647332e-01
3.45000000  5.93250804886340e-01 4.06749195133079e-01
3.46000000  5.94516362703106e-01 4.05483637316369e-01
3.47000000  5.95561072118872e-01 4.04438927900660e-01
3.48000000  5.96375093324387e-01 4.03624906695202e-01
3.49000000  5.96949196866862e-01 4.03050803152783e-01
3.50000000  5.97274799890602e-01 4.02725200129099e-01
3.51000000  5.97344000005589e-01 4.02656000014168e-01
3.52000000  5.97149606644155e-01 4.02850393375658e-01
3.53000000  5.96685169777078e-01 4.03314830242792e-01
3.54000000  5.95945005872221e-01 4.04054994147705e-01
3.55000000  5.94924220991132e-01 4.05075779028851e-01
3.56000000  5.93618730931756e-01 4.06381269088283e-01
3.57000000  5.92025278338578e-01 4.07974721681517e-01
3.58000000  5.90141446714961e-01 4.09858553305190e-01
3.59000000  5.87965671286188e-01 4.12034328734020e-01
3.60000000  5.85497246675651e-01 4.14502753344613e-01
3.61000000  5.82736331370660e-01 4.17263668649660e-01
3.62000000  5.79683948968468e-01 4.20316051051908e-01
3.63000000  5.76341986207204e-01 4.23658013813229e-01
3.64000000  5.72713187800401e-01 4.27286812220088e-01
3.65000000  5.68801148107719e-01 4.31198851912827e-01
3.66000000  5.64610299688038e-01 4.35389700332563e-01
3.67000000  5.60145898794558e-01 4.39854101226100e-01
3.68000000  5.55414007884472e-01 4.44585992136242e-01
