#"time"      "diagonal of the density matrix"
0.00000000  1.00000000000000e+00 0.00000000000000e+00
0.01000000  9.99999999996063e-01 3.99343747686810e-12
0.02000000  9.99999999856465e-01 1.43647298208422e-10
0.03000000  9.99999998561296e-01 1.43887281959834e-09
0.04000000  9.99999992294885e-01 7.70533971855324e-09
0.05000000  9.99999971297046e-01 2.87032350548592e-08
0.06000000  9.99999915504529e-01 8.44958089396735e-08
0.07000000  9.99999789031895e-01 2.10968498572653e-07
0.08000000  9.99999533554366e-01 4.66446084043299e-07
0.09000000  9.99999060667982e-01 9.39332524681743e-07
0.10000000  9.99998243314599e-01 1.75668596348730e-06
0.11000000  9.99996906370645e-01 3.09362997427437e-06
0.12000000  9.99994816509114e-01 5.18349156078634e-06
0.13000000  9.99991671453940e-01 8.32854679164867e-06
0.14000000  9.99987088754433e-01 1.29112463548243e-05
0.15000000  9.99980594215027e-01 1.94057858173369e-05
0.16000000  9.99971610121852e-01 2.83898790489471e-05
0.17000000  9.99959443412785e-01 4.05565881715327e-05
0.18000000  9.99943273941434e-01 5.67260595788061e-05
0.19000000  9.99922142987996e-01 7.78570130733134e-05
0.20000000  9.99894942171107e-01 1.05057830018631e-04
0.21000000  9.99860402914559e-01 1.39597086622888e-04
0.22000000  9.99817086621175e-01 1.82913380062989e-04
0.23000000  9.99763375703171e-01 2.36624298124106e-04
0.24000000  9.99697465613999e-01 3.02534387352109e-04
0.25000000  9.99617358021034e-01 3.82641980372883e-04
0.26000000  9.99520855251477e-01 4.79144749986376e-04
0.27000000  9.99405556135671e-01 5.94443865849005e-04
0.28000000  9.99268853362617e-01 7.31146638959581e-04
0.29000000  9.99107932451937e-01 8.92067549695783e-04
0.30000000  9.98919772434953e-01 1.08022756673537e-03
0.31000000  9.98701148324990e-01 1.29885167675530e-03
0.32000000  9.98448635443560e-01 1.55136455824131e-03
0.33000000  9.98158615654896e-01 1.84138434696101e-03
0.34000000  9.97827285546364e-01 2.17271445554972e-03
0.35000000  9.97450666576851e-01 2.54933342511894e-03
0.36000000  9.97024617199321e-01 2.97538280270508e-03
0.37000000  9.96544846947471e-01 3.45515305461106e-03
0.38000000  9.96006932460008e-01 3.99306754213126e-03
0.39000000  9.95406335399531e-01 4.59366460266423e-03
0.40000000  9.94738422206571e-01 5.26157779568076e-03
0.41000000  9.93998485613010e-01 6.00151438929800e-03
0.42000000  9.93181767823178e-01 6.81823217918652e-03
0.43000000  9.92283485255341e-01 7.71651474707948e-03
0.44000000  9.91298854721338e-01 8.70114528113845e-03
0.45000000  9.90223120907796e-01 9.77687909473739e-03
0.46000000  9.89051585008850e-01 1.09484149937398e-02
0.47000000  9.87779634347694e-01 1.22203656549519e-02
0.48000000  9.86402772812668e-01 1.35972271900335e-02
0.49000000  9.84916651923122e-01 1.50833480796367e-02
0.50000000  9.83317102330979e-01 1.66828976718355e-02
0.51000000  9.81600165555952e-01 1.83998344469185e-02
0.52000000  9.79762125745657e-01 2.02378742572703e-02
0.53000000  9.77799541246675e-01 2.22004587563080e-02
0.54000000  9.75709275768840e-01 2.42907242342001e-02
0.55000000  9.73488528922751e-01 2.65114710803453e-02
0.56000000  9.71134865909863e-01 2.88651340932889e-02
0.57000000  9.68646246145323e-01 3.13537538578852e-02
0.58000000  9.66021050596203e-01 3.39789494070621e-02
0.59000000  9.63258107621801e-01 3.67418923815198e-02
0.60000000  9.60356717108283e-01 3.96432828950940e-02
0.61000000  9.57316672697052e-01 4.26833273063818e-02
0.62000000  9.54138281914908e-01 4.58617180885819e-02
0.63000000  9.50822384024153e-01 4.91776159793930e-02
0.64000000  9.47370365422293e-01 5.26296345813094e-02
0.65000000  9.43784172433853e-01 5.62158275698052e-02
0.66000000  9.40066321350919e-01 5.99336786527962e-02
0.67000000  9.36219905594278e-01 6.37800944094933e-02
0.68000000  9.32248599883417e-01 6.77514001204102e-02
0.69000000  9.28156661320917e-01 7.18433386829663e-02
0.70000000  9.23948927314999e-01 7.60510726889407e-02
0.71000000  9.19630810282887e-01 8.03691897211095e-02
0.72000000  9.15208289097200e-01 8.47917109068529e-02
0.73000000  9.10687897257626e-01 8.93121027464826e-02
0.74000000  9.06076707790510e-01 9.39232922136552e-02
0.75000000  9.01382314899603e-01 9.86176851046185e-02
0.76000000  8.96612812411927e-01 1.03387187592351e-01
0.77000000  8.91776769083317e-01 1.08223230921017e-01
0.78000000  8.86883200848673e-01 1.13116799155717e-01
0.79000000  8.81941540122017e-01 1.18058459882430e-01
0.80000000  8.76961602271119e-01 1.23038397733384e-01
0.81000000  8.71953549410441e-01 1.28046450594118e-01
0.82000000  8.66927851674433e-01 1.33072148330182e-01
0.83000000  8.61895246150642e-01 1.38104753854030e-01
0.84000000  8.56866693668485e-01 1.43133306336243e-01
0.85000000  8.51853333654895e-01 1.48146666349889e-01
0.86000000  8.46866437282117e-01 1.53133562722723e-01
0.87000000  8.41917359145760e-01 1.58082640859137e-01
0.88000000  8.37017487722588e-01 1.62982512282365e-01
0.89000000  8.32178194867457e-01 1.67821805137553e-01
0.90000000  8.27410784617140e-01 1.72589215387926e-01
0.91000000  8.22726441575546e-01 1.77273558429576e-01
0.92000000  8.18136179159877e-01 1.81863820845301e-01
0.93000000  8.13650787990650e-01 1.86349212014584e-01
0.94000000  8.09280784710104e-01 1.90719215295187e-01
0.95000000  8.05036361513395e-01 1.94963638491952e-01
0.96000000  8.00927336675085e-01 1.99072663330319e-01
0.97000000  7.96963106349747e-01 2.03036893655713e-01
0.98000000  7.93152597920167e-01 2.06847402085349e-01
0.99000000  7.89504225159486e-01 2.10495774846086e-01
1.00000000  7.86025845464893e-01 2.13974154540736e-01
1.01000000  7.82724719410073e-01 2.17275280595612e-01
1.02000000  7.79607472851738e-01 2.20392527154003e-01
1.03000000  7.76680061812102e-01 2.23319938193695e-01
1.04000000  7.73947740344418e-01 2.26052259661436e-01
1.05000000  7.71415031572561e-01 2.28584968433349e-01
1.06000000  7.69085702078362e-01 2.30914297927604e-01
1.07000000  7.66962739791975e-01 2.33037260214047e-01
1.08000000  7.65048335521220e-01 2.34951664484859e-01
1.09000000  7.63343868235589e-01 2.36656131770546e-01
1.10000000  7.61849894199674e-01 2.38150105806517e-01
1.11000000  7.60566140029190e-01 2.39433859977058e-01
1.12000000  7.59491499720799e-01 2.40508500285505e-01
1.13000000  7.58624035684581e-01 2.41375964321779e-01
1.14000000  7.57960983785488e-01 2.42039016220928e-01
1.15000000  7.57498762377590e-01 2.42501237628882e-01
1.16000000  7.57232985292451e-01 2.42767014714078e-01
1.17000000  7.57158478720773e-01 2.42841521285812e-01
1.18000000  7.57269301904645e-01 2.42730698101997e-01
1.19000000  7.57558771536382e-01 2.42441228470316e-01
1.20000000  7.58019489739333e-01 2.41980510267421e-01
1.21000000  7.58643375486109e-01 2.41356624520702e-01
1.22000000  7.59421699290720e-01 2.40578300716147e-01
1.23000000  7.60345120993122e-01 2.39654879013801e-01
1.24000000  7.61403730437833e-01 2.38596269569146e-01
1.25000000  7.62587090832613e-01 2.37412909174422e-01
1.26000000  7.63884284558920e-01 2.36115715448173e-01
1.27000000  7.65283961192882e-01 2.34716038814267e-01
1.28000000  7.66774387484113e-01 2.33225612523092e-01
1.29000000  7.68343499029725e-01 2.31656500977536e-01
1.30000000  7.69978953372588e-01 2.30021046634729e-01
1.31000000  7.71668184246169e-01 2.28331815761205e-01
1.32000000  7.73398456683213e-01 2.26601543324217e-01
1.33000000  7.75156922702202e-01 2.24843077305284e-01
1.34000000  7.76930677283821e-01 2.23069322723722e-01
1.35000000  7.78706814349690e-01 2.21293185657908e-01
1.36000000  7.80472482457352e-01 2.19527517550303e-01
1.37000000  7.82214939928807e-01 2.17785060078905e-01
1.38000000  7.83921609134942e-01 2.16078390872826e-01
1.39000000  7.85580129664715e-01 2.14419870343109e-01
1.40000000  7.87178410116086e-01 2.12821589891794e-01
1.41000000  7.88704678255244e-01 2.11295321752693e-01
1.42000000  7.90147529301640e-01 2.09852470706354e-01
1.43000000  7.91495972108626e-01 2.08504027899423e-01
1.44000000  7.92739473023012e-01 2.07260526985093e-01
1.45000000  7.93867997221465e-01 2.06132002786697e-01
1.46000000  7.94872047337417e-01 2.05127952670801e-01
1.47000000  7.95742699208694e-01 2.04257300799580e-01
1.48000000  7.96471634593538e-01 2.03528365414793e-01
1.49000000  7.97051170720809e-01 2.02948829287578e-01
1.50000000  7.97474286558857e-01 2.02525713449587e-01
1.51000000  7.97734645706730e-01 2.02265354301770e-01
1.52000000  7.97826615830882e-01 2.02173384177674e-01
1.53000000  7.97745284590265e-01 2.02254715418347e-01
1.54000000  7.97486472012505e-01 2.02513527996163e-01
1.55000000  7.97046739303640e-01 2.02953260705085e-01
1.56000000  7.96423394093508e-01 2.03576605915273e-01
1.57000000  7.95614492138258e-01 2.04385507870579e-01
1.58000000  7.94618835520383e-01 2.05381164488510e-01
1.59000000  7.93435967405190e-01 2.06564032603760e-01
1.60000000  7.92066163430440e-01 2.07933836578566e-01
1.61000000  7.90510419823096e-01 2.09489580185967e-01
1.62000000  7.88770438353431e-01 2.11229561655687e-01
1.63000000  7.86848608252268e-01 2.13151391756907e-01
1.64000000  7.84747985231564e-01 2.15252014777667e-01
1.65000000  7.82472267762076e-01 2.17527732247212e-01
1.66000000  7.80025770774112e-01 2.19974229235231e-01
1.67000000  7.77413396958624e-01 2.22586603050776e-01
1.68000000  7.74640605855785e-01 2.25359394153672e-01
1.69000000  7.71713380926941e-01 2.28286619082571e-01
1.70000000  7.68638194813229e-01 2.31361805196340e-01
1.71000000  7.65421972990196e-01 2.34578027019429e-01
1.72000000  7.62072056032617e-01 2.37927943977065e-01
1.73000000  7.58596160707021e-01 2.41403839302717e-01
1.74000000  7.55002340111670e-01 2.44997659898124e-01
1.75000000  7.51298943084397e-01 2.48701056925454e-01
1.76000000  7.47494573098305e-01 2.52505426911601e-01
1.77000000  7.43598046863495e-01 2.56401953146468e-01
1.78000000  7.39618352849991e-01 2.60381647160028e-01
1.79000000  7.35564609942871e-01 2.64435390067204e-01
1.80000000  7.31446026435247e-01 2.68553973574885e-01
1.81000000  7.27271859558352e-01 2.72728140451836e-01
1.82000000  7.23051375740571e-01 2.76948624269674e-01
1.83000000  7.18793811778869e-01 2.81206188231432e-01
1.84000000  7.14508337096858e-01 2.85491662913500e-01
1.85000000  7.10204017253669e-01 2.89795982756744e-01
1.86000000  7.05889778857091e-01 2.94110221153379e-01
1.87000000  7.01574376023001e-01 2.98425623987525e-01
1.88000000  6.97266358511249e-01 3.02733641499333e-01
1.89000000  6.92974041655714e-01 3.07025958354924e-01
1.90000000  6.88705478193553e-01 3.11294521817141e-01
1.91000000  6.84468432085594e-01 3.15531567925157e-01
1.92000000  6.80270354406638e-01 3.19729645604170e-01
1.93000000  6.76118361371097e-01 3.23881638639767e-01
1.94000000  6.72019214546068e-01 3.27980785464852e-01
1.95000000  6.67979303290672e-01 3.32020696720304e-01
1.96000000  6.64004629447375e-01 3.35995370563657e-01
1.97000000  6.60100794298128e-01 3.39899205712961e-01
1.98000000  6.56272987785548e-01 3.43727012225597e-01
1.99000000  6.52525979987201e-01 3.47474020024001e-01
2.00000000  6.48864114819224e-01 3.51135885192034e-01
2.01000000  6.45291305934283e-01 3.54708694077031e-01
2.02000000  6.41811034768142e-01 3.58188965243228e-01
2.03000000  6.38426350678992e-01 3.61573649332435e-01
2.04000000  6.35139873114253e-01 3.64860126897230e-01
2.05000000  6.31953795730770e-01 3.68046204280769e-01
2.06000000  6.28869892386289e-01 3.71130107625307e-01
2.07000000  6.25889524912777e-01 3.74110475098874e-01
2.08000000  6.23013652575656e-01 3.76986347436052e-01
2.09000000  6.20242843117213e-01 3.79757156894551e-01
2.10000000  6.17577285277548e-01 3.82422714734273e-01
2.11000000  6.15016802682214e-01 3.84983197329663e-01
2.12000000  6.12560868982348e-01 3.87439131029585e-01
2.13000000  6.10208624130485e-01 3.89791375881504e-01
2.14000000  6.07958891673440e-01 3.92041108338606e-01
2.15000000  6.05810196942531e-01 3.94189803069571e-01
2.16000000  6.03760786021110e-01 3.96239213991048e-01
2.17000000  6.01808645369654e-01 3.98191354642561e-01
2.18000000  5.99951521989727e-01 4.00048478022544e-01
2.19000000  5.98186944009730e-01 4.01813056002597e-01
2.20000000  5.96512241577593e-01 4.03487758434790e-01
2.21000000  5.94924567948331e-01 4.05075432064108e-01
2.22000000  5.93420920657682e-01 4.06579079354813e-01
2.23000000  5.91998162676772e-01 4.08001837335780e-01
2.24000000  5.90653043446899e-01 4.09346956565710e-01
2.25000000  5.89382219698081e-01 4.10617780314584e-01
2.26000000  5.88182275959801e-01 4.11817724052920e-01
2.27000000  5.87049744677517e-01 4.12950255335260e-01
2.28000000  5.85981125853829e-01 4.14018874159005e-01
2.29000000  5.84972906138670e-01 4.15027093874220e-01
2.30000000  5.84021577298542e-01 4.15978422714404e-01
2.31000000  5.83123654000492e-01 4.16876346012511e-01
2.32000000  5.82275690852302e-01 4.17724309160757e-01
2.33000000  5.81474298646092e-01 4.18525701367023e-01
2.34000000  5.80716159758246e-01 4.19283840254926e-01
2.35000000  5.79998042664205e-01 4.20001957349023e-01
2.36000000  5.79316815532212e-01 4.20683184481072e-01
2.37000000  5.78669458865452e-01 4.21330541147889e-01
2.38000000  5.78053077167293e-01 4.21946922846104e-01
2.39000000  5.77464909609364e-01 4.22535090404089e-01
2.40000000  5.76902339687035e-01 4.23097660326474e-01
2.41000000  5.76362903851511e-01 4.23637096162055e-01
2.42000000  5.75844299112112e-01 4.24155700901510e-01
2.43000000  5.75344389606480e-01 4.24655610407198e-01
2.44000000  5.74861212140342e-01 4.25138787873392e-01
2.45000000  5.74392980702107e-01 4.25607019311684e-01
2.46000000  5.73938089960990e-01 4.26061910052857e-01
2.47000000  5.73495117760495e-01 4.26504882253408e-01
2.48000000  5.73062826622019e-01 4.26937173391940e-01
2.49000000  5.72640164276021e-01 4.27359835737995e-01
2.50000000  5.72226263240664e-01 4.27773736773408e-01
2.51000000  5.71820439470112e-01 4.28179560544017e-01
2.52000000  5.71422190096716e-01 4.28577809917468e-01
2.53000000  5.71031190293234e-01 4.28968809721007e-01
2.54000000  5.70647289282945e-01 4.29352710731353e-01
2.55000000  5.70270505527139e-01 4.29729494487215e-01
2.56000000  5.69901021120916e-01 4.30098978893494e-01
2.57000000  5.69539175429596e-01 4.30460824584870e-01
2.58000000  5.69185457999347e-01 4.30814542015175e-01
2.59000000  5.68840500776827e-01 4.31159499237751e-01
2.60000000  5.68505069673826e-01 4.31494930340809e-01
2.61000000  5.68180055514011e-01 4.31819944500680e-01
2.62000000  5.67866464400003e-01 4.32133535614745e-01
2.63000000  5.67565407540109e-01 4.32434592474695e-01
2.64000000  5.67278090575158e-01 4.32721909439702e-01
2.65000000  5.67005802447015e-01 4.32994197567901e-01
2.66000000  5.66749903851498e-01 4.33250096163474e-01
2.67000000  5.66511815319591e-01 4.33488184695437e-01
2.68000000  5.66293004972085e-01 4.33706995043000e-01
2.69000000  5.66094975993985e-01 4.33905024021157e-01
2.70000000  5.65919253876303e-01 4.34080746138895e-01
2.71000000  5.65767373474162e-01 4.34232626541092e-01
2.72000000  5.65640865931413e-01 4.34359134083898e-01
2.73000000  5.65541245523299e-01 4.34458754492068e-01
2.74000000  5.65469996470004e-01 4.34530003545419e-01
2.75000000  5.65428559775195e-01 4.34571440240284e-01
2.76000000  5.65418320144920e-01 4.34581679870616e-01
2.77000000  5.65440593043403e-01 4.34559406972189e-01
2.78000000  5.65496611943394e-01 4.34503388072254e-01
2.79000000  5.65587515829712e-01 4.34412484185992e-01
2.80000000  5.65714337015537e-01 4.34285663000224e-01
2.81000000  5.65877989331697e-01 4.34122010684120e-01
2.82000000  5.66079256749783e-01 4.33920743266091e-01
2.83000000  5.66318782500252e-01 4.33681217515678e-01
2.84000000  5.66597058746829e-01 4.33402941269157e-01
2.85000000  5.66914416878358e-01 4.33085583137684e-01
2.86000000  5.67271018478888e-01 4.32728981537210e-01
2.87000000  5.67666847036021e-01 4.32333152980133e-01
2.88000000  5.68101700446559e-01 4.31898299569652e-01
2.89000000  5.68575184377070e-01 4.31424815639198e-01
2.90000000  5.69086706535247e-01 4.30913293481077e-01
2.91000000  5.69635471905821e-01 4.30364528110559e-01
2.92000000  5.70220479002215e-01 4.29779521014221e-01
2.93000000  5.70840517182202e-01 4.29159482834290e-01
2.94000000  5.71494165072465e-01 4.28505834944083e-01
2.95000000  5.72179790143142e-01 4.27820209873463e-01
2.96000000  5.72895549469238e-01 4.27104450547423e-01
2.97000000  5.73639391711132e-01 4.26360608305586e-01
2.98000000  5.74409060341332e-01 4.25590939675441e-01
2.99000000  5.75202098139184e-01 4.24797901877646e-01
3.00000000  5.76015852969320e-01 4.23984147047566e-01
3.01000000  5.76847484853461e-01 4.23152515163482e-01
3.02000000  5.77693974338504e-01 4.22306025678494e-01
3.03000000  5.78552132156984e-01 4.21447867860071e-01
3.04000000  5.79418610168700e-01 4.20581389848412e-01
3.05000000  5.80289913564891e-01 4.19710086452276e-01
3.06000000  5.81162414308603e-01 4.18837585708621e-01
3.07000000  5.82032365777009e-01 4.17967634240272e-01
3.08000000  5.82895918563477e-01 4.17104081453860e-01
3.09000000  5.83749137389061e-01 4.16250862628332e-01
3.10000000  5.84588019064975e-01 4.15411980952474e-01
3.11000000  5.85408511439545e-01 4.14591488577961e-01
3.12000000  5.86206533255099e-01 4.13793466762463e-01
3.13000000  5.86977994832434e-01 4.13022005185184e-01
3.14000000  5.87718819492793e-01 4.12281180524882e-01
3.15000000  5.88424965619937e-01 4.11575034397794e-01
3.16000000  5.89092449257823e-01 4.10907550759964e-01
3.17000000  5.89717367132702e-01 4.10282632885142e-01
3.18000000  5.90295919982255e-01 4.09704080035645e-01
3.19000000  5.90824436068674e-01 4.09175563949282e-01
3.20000000  5.91299394747417e-01 4.08700605270595e-01
3.21000000  5.91717449958896e-01 4.08282550059172e-01
3.22000000  5.92075453506479e-01 4.07924546511646e-01
3.23000000  5.92370477981101e-01 4.07629522037080e-01
3.24000000  5.92599839190452e-01 4.07400160827785e-01
3.25000000  5.92761117949167e-01 4.07238882069126e-01
3.26000000  5.92852181085840e-01 4.07147818932510e-01
3.27000000  5.92871201522870e-01 4.07128798495536e-01
3.28000000  5.92816677286352e-01 4.07183322732111e-01
3.29000000  5.92687449305278e-01 4.07312550713241e-01
3.30000000  5.92482717862411e-01 4.07517282156164e-01
3.31000000  5.92202057563179e-01 4.07797942455452e-01
3.32000000  5.91845430693944e-01 4.08154569324743e-01
3.33000000  5.91413198846963e-01 4.08586801171781e-01
3.34000000  5.90906132696220e-01 4.09093867322580e-01
3.35000000  5.90325419816215e-01 4.09674580202641e-01
3.36000000  5.89672670444475e-01 4.10327329574438e-01
3.37000000  5.88949921098229e-01 4.11050078920740e-01
3.38000000  5.88159635966119e-01 4.11840364052906e-01
3.39000000  5.87304706007088e-01 4.12695294011994e-01
3.40000000  5.86388445700539e-01 4.13611554318599e-01
3.41000000  5.85414587404568e-01 4.14585412614627e-01
3.42000000  5.84387273292288e-01 4.15612726726963e-01
3.43000000  5.83311044850097e-01 4.16688955169210e-01
3.44000000  5.82190829935987e-01 4.17809170083376e-01
3.45000000  5.81031927410644e-01 4.18968072608776e-01
3.46000000  5.79839989368964e-01 4.20160010650512e-01
3.47000000  5.78621001014786e-01 4.21378999004747e-01
3.48000000  5.77381258236796e-01 4.22618741782793e-01
3.49000000  5.76127342958802e-01 4.23872657060843e-01
3.50000000  5.74866096352675e-01 4.25133903667026e-01
3.51000000  5.73604590017160e-01 4.26395410002597e-01
3.52000000  5.72350095240372e-01 4.27649904779442e-01
3.53000000  5.71110050477954e-01 4.28889949541916e-01
3.54000000  5.69892027192599e-01 4.30107972827326e-01
3.55000000  5.68703694213645e-01 4.31296305806337e-01
3.56000000  5.67552780787856e-01 4.32447219232182e-01
3.57000000  5.66447038504015e-01 4.33552961516079e-01
3.58000000  5.65394202284597e-01 4.34605797735554e-01
3.59000000  5.64401950647451e-01 4.35598049372756e-01
3.60000000  5.63477865448989e-01 4.36522134571274e-01
3.61000000  5.62629391327800e-01 4.37370608692520e-01
3.62000000  5.61863795073812e-01 4.38136204946564e-01
3.63000000  5.61188125153039e-01 4.38811874867393e-01
3.64000000  5.60609171621512e-01 4.39390828398977e-01
3.65000000  5.60133426664164e-01 4.39866573356381e-01
3.66000000  5.59767045995200e-01 4.40232954025401e-01
3.67000000  5.59515811355727e-01 4.40484188664931e-01
3.68000000  5.59385094342222e-01 4.40614905678492e-01
