#"time"      "diagonal of the density matrix"
0.00000000  0.00000000000000e+00 1.00000000000000e+00
0.01000000  3.99203526712065e-12 9.99999999996064e-01
0.02000000  1.43590900060621e-10 9.99999999856522e-01
0.03000000  1.43834570301398e-09 9.99999998561823e-01
0.04000000  7.70321187406694e-09 9.99999992297013e-01
0.05000000  2.86991939392525e-08 9.99999971301087e-01
0.06000000  8.44985942803946e-08 9.99999915501743e-01
0.07000000  2.11019644907141e-07 9.99999788980749e-01
0.08000000  4.66672986604866e-07 9.99999533327463e-01
0.09000000  9.40050597266870e-07 9.99999059949909e-01
0.10000000  1.75857645214963e-06 9.99998241424110e-01
0.11000000  3.09802751266730e-06 9.99996901973106e-01
0.12000000  5.19282367206723e-06 9.99994807177003e-01
0.13000000  8.34697611562881e-06 9.99991653024616e-01
0.14000000  1.29455752538790e-05 9.99987054425534e-01
0.15000000  1.94666920274081e-05 9.99980533308817e-01
0.16000000  2.84935600221085e-05 9.99971506440878e-01
0.17000000  4.07269005277305e-05 9.99959273100429e-01
0.18000000  5.69972484666266e-05 9.99943002752546e-01
0.19000000  7.82771340515520e-05 9.99921722867018e-01
0.20000000  1.05692973131275e-04 9.99894307027995e-01
0.21000000  1.40536518471951e-04 9.99859463482710e-01
0.22000000  1.84275724713493e-04 9.99815724276525e-01
0.23000000  2.38564881437614e-04 9.99761435119857e-01
0.24000000  3.05253871683044e-04 9.99694746129668e-01
0.25000000  3.86396417330210e-04 9.99613603584077e-01
0.26000000  4.84257178030242e-04 9.99515742823433e-01
0.27000000  6.01317576740785e-04 9.99398682424779e-01
0.28000000  7.40280232414823e-04 9.99259719769161e-01
0.29000000  9.04071888921389e-04 9.99095928112711e-01
0.30000000  1.09584473880385e-03 9.98904155262885e-01
0.31000000  1.31897605094010e-03 9.98681023950805e-01
0.32000000  1.57706602249043e-03 9.98422933979311e-01
0.33000000  1.87393378762718e-03 9.98126066214230e-01
0.34000000  2.21361152835426e-03 9.97786388473559e-01
0.35000000  2.60033664615640e-03 9.97399663355814e-01
0.36000000  3.03854196717706e-03 9.96961458034849e-01
0.37000000  3.53284396801267e-03 9.96467156034070e-01
0.38000000  4.08802902393090e-03 9.95911970978208e-01
0.39000000  4.70903769626929e-03 9.95290962305926e-01
0.40000000  5.40094709084298e-03 9.94599052911408e-01
0.41000000  6.16895133428092e-03 9.93831048668027e-01
0.42000000  7.01834023021217e-03 9.92981659772152e-01
0.43000000  7.95447617203132e-03 9.92045523830389e-01
0.44000000  8.98276940347822e-03 9.91017230598998e-01
0.45000000  1.01086517323695e-02 9.89891348270163e-01
0.46000000  1.13375488164140e-02 9.88662451186175e-01
0.47000000  1.26748511530331e-02 9.87325148849612e-01
0.48000000  1.41258839173968e-02 9.85874116085305e-01
0.49000000  1.56958758043790e-02 9.84304124198379e-01
0.50000000  1.73899270407577e-02 9.82610072962057e-01
0.51000000  1.92129767436405e-02 9.80787023259230e-01
0.52000000  2.11697698097242e-02 9.78830230193203e-01
0.53000000  2.32648235275209e-02 9.76735176475462e-01
0.54000000  2.55023941110433e-02 9.74497605891996e-01
0.55000000  2.78864433585918e-02 9.72113556644504e-01
0.56000000  3.04206056441693e-02 9.69579394358983e-01
0.57000000  3.31081554516366e-02 9.66891844551572e-01
0.58000000  3.59519756629827e-02 9.64048024340282e-01
0.59000000  3.89545268119971e-02 9.61045473191324e-01
0.60000000  4.21178175131821e-02 9.57882182490195e-01
0.61000000  4.54433762729375e-02 9.54556623730496e-01
0.62000000  4.89322248858884e-02 9.51067775117601e-01
0.63000000  5.25848536137184e-02 9.47415146389828e-01
0.64000000  5.64011983370577e-02 9.43598801666545e-01
0.65000000  6.03806198628700e-02 9.39619380140788e-01
0.66000000  6.45218855604366e-02 9.35478114443278e-01
0.67000000  6.88231534885019e-02 9.31176846515269e-01
0.68000000  7.32819591644687e-02 9.26718040839359e-01
0.69000000  7.78952051137861e-02 9.22104794890097e-01
0.70000000  8.26591533239307e-02 9.17340846680009e-01
0.71000000  8.75694207127125e-02 9.12430579291284e-01
0.72000000  9.26209777051363e-02 9.07379022298916e-01
0.73000000  9.78081499967947e-02 9.02191850007314e-01
0.74000000  1.03124623564869e-01 8.96875376439296e-01
0.75000000  1.08563452970354e-01 8.91436547033867e-01
0.76000000  1.14117072977215e-01 8.85882927027063e-01
0.77000000  1.19777313495933e-01 8.80222686508401e-01
0.78000000  1.25535417840407e-01 8.74464582163983e-01
0.79000000  1.31382064268563e-01 8.68617935735884e-01
0.80000000  1.37307390758387e-01 8.62692609246116e-01
0.81000000  1.43301022952568e-01 8.56698977051991e-01
0.82000000  1.49352105186608e-01 8.50647894818008e-01
0.83000000  1.55449334497232e-01 8.44550665507440e-01
0.84000000  1.61580997490356e-01 8.38419002514372e-01
0.85000000  1.67735009930806e-01 8.32264990073978e-01
0.86000000  1.73898958899541e-01 8.26101041105300e-01
0.87000000  1.80060147348455e-01 8.19939852656442e-01
0.88000000  1.86205640867946e-01 8.13794359137008e-01
0.89000000  1.92322316468469e-01 8.07677683536541e-01
0.90000000  1.98396913164356e-01 8.01603086840710e-01
0.91000000  2.04416084136262e-01 7.95583915868860e-01
0.92000000  2.10366450237873e-01 7.89633549767305e-01
0.93000000  2.16234654602975e-01 7.83765345402260e-01
0.94000000  2.22007418100707e-01 7.77992581904584e-01
0.95000000  2.27671595379889e-01 7.72328404625458e-01
0.96000000  2.33214231237710e-01 7.66785768767694e-01
0.97000000  2.38622617043863e-01 7.61377382961597e-01
0.98000000  2.43884346948459e-01 7.56115653057057e-01
0.99000000  2.48987373600673e-01 7.51012626404899e-01
1.00000000  2.53920063105201e-01 7.46079936900428e-01
1.01000000  2.58671248945147e-01 7.41328751060538e-01
1.02000000  2.63230284602950e-01 7.36769715402791e-01
1.03000000  2.67587094615346e-01 7.32412905390452e-01
1.04000000  2.71732223804185e-01 7.28267776201669e-01
1.05000000  2.75656884432095e-01 7.24343115573815e-01
1.06000000  2.79353001040457e-01 7.20646998965509e-01
1.07000000  2.82813252736956e-01 7.17186747269066e-01
1.08000000  2.86031112710963e-01 7.13968887295116e-01
1.09000000  2.89000884767168e-01 7.10999115238967e-01
1.10000000  2.91717736681165e-01 7.08282263325027e-01
1.11000000  2.94177730194949e-01 7.05822269811299e-01
1.12000000  2.96377847485578e-01 7.03622152520726e-01
1.13000000  2.98316013956299e-01 7.01683986050061e-01
1.14000000  2.99991117216372e-01 7.00008882790044e-01
1.15000000  3.01403022133377e-01 6.98596977873096e-01
1.16000000  3.02552581859960e-01 6.97447418146569e-01
1.17000000  3.03441644755653e-01 6.96558355250933e-01
1.18000000  3.04073057143455e-01 6.95926942863187e-01
1.19000000  3.04450661860258e-01 6.95549338146440e-01
1.20000000  3.04579292579733e-01 6.95420707427022e-01
1.21000000  3.04464763906002e-01 6.95535236100809e-01
1.22000000  3.04113857256071e-01 6.95886142750796e-01
1.23000000  3.03534302568556e-01 6.96465697438367e-01
1.24000000  3.02734755895632e-01 6.97265244111348e-01
1.25000000  3.01724772954190e-01 6.98275227052846e-01
1.26000000  3.00514778730879e-01 6.99485221276213e-01
1.27000000  2.99116033253927e-01 7.00883966753221e-01
1.28000000  2.97540593662258e-01 7.02459406344947e-01
1.29000000  2.95801272719438e-01 7.04198727287824e-01
1.30000000  2.93911593936233e-01 7.06088406071085e-01
1.31000000  2.91885743481021e-01 7.08114256526353e-01
1.32000000  2.89738519071903e-01 7.10261480935527e-01
1.33000000  2.87485276057989e-01 7.12514723949497e-01
1.34000000  2.85141870910016e-01 7.14858129097527e-01
1.35000000  2.82724602352042e-01 7.17275397655556e-01
1.36000000  2.80250150376496e-01 7.19749849631159e-01
1.37000000  2.77735513394208e-01 7.22264486613504e-01
1.38000000  2.75197943779294e-01 7.24802056228474e-01
1.39000000  2.72654882075744e-01 7.27345117932080e-01
1.40000000  2.70123890138364e-01 7.29876109869516e-01
1.41000000  2.67622583485266e-01 7.32377416522670e-01
1.42000000  2.65168563142423e-01 7.34831436865570e-01
1.43000000  2.62779347262823e-01 7.37220652745227e-01
1.44000000  2.60472302803603e-01 7.39527697204502e-01
1.45000000  2.58264577544089e-01 7.41735422464073e-01
1.46000000  2.56173032726006e-01 7.43826967282212e-01
1.47000000  2.54214176594282e-01 7.45785823413992e-01
1.48000000  2.52404099112809e-01 7.47595900895522e-01
1.49000000  2.50758408124333e-01 7.49241591884054e-01
1.50000000  2.49292167217348e-01 7.50707832791096e-01
1.51000000  2.48019835555475e-01 7.51980164453024e-01
1.52000000  2.46955209916393e-01 7.53044790092163e-01
1.53000000  2.46111369177977e-01 7.53888630830635e-01
1.54000000  2.45500621478980e-01 7.54499378529688e-01
1.55000000  2.45134454270359e-01 7.54865545738365e-01
1.56000000  2.45023487461287e-01 7.54976512547494e-01
1.57000000  2.45177429851122e-01 7.54822570157715e-01
1.58000000  2.45605039025046e-01 7.54394960983848e-01
1.59000000  2.46314084876946e-01 7.53685915132004e-01
1.60000000  2.47311316908379e-01 7.52688683100627e-01
1.61000000  2.48602435437190e-01 7.51397564571872e-01
1.62000000  2.50192066833687e-01 7.49807933175432e-01
1.63000000  2.52083742886167e-01 7.47916257123008e-01
1.64000000  2.54279884381230e-01 7.45720115628001e-01
1.65000000  2.56781788967649e-01 7.43218211041638e-01
1.66000000  2.59589623355770e-01 7.40410376653573e-01
1.67000000  2.62702419887474e-01 7.37297580121926e-01
1.68000000  2.66118077494741e-01 7.33881922514715e-01
1.69000000  2.69833367047892e-01 7.30166632961621e-01
1.70000000  2.73843941077682e-01 7.26156058931887e-01
1.71000000  2.78144347838648e-01 7.21855652170977e-01
1.72000000  2.82728049664551e-01 7.17271950345131e-01
1.73000000  2.87587445550410e-01 7.12412554459328e-01
1.74000000  2.92713897879636e-01 7.07286102130158e-01
1.75000000  2.98097763199077e-01 7.01902236810773e-01
1.76000000  3.03728426929551e-01 6.96271573080355e-01
1.77000000  3.09594341884639e-01 6.90405658125324e-01
1.78000000  3.15683070456209e-01 6.84316929553811e-01
1.79000000  3.21981330311380e-01 6.78018669698695e-01
1.80000000  3.28475043432489e-01 6.71524956577643e-01
1.81000000  3.35149388319042e-01 6.64850611691146e-01
1.82000000  3.41988855158789e-01 6.58011144851455e-01
1.83000000  3.48977303763841e-01 6.51022696246460e-01
1.84000000  3.56098024057293e-01 6.43901975953065e-01
1.85000000  3.63333798886125e-01 6.36666201124289e-01
1.86000000  3.70666968927195e-01 6.29333031083274e-01
1.87000000  3.78079499445056e-01 6.21920500565469e-01
1.88000000  3.85553048652995e-01 6.14446951357587e-01
1.89000000  3.93069037422298e-01 6.06930962588340e-01
1.90000000  4.00608720079122e-01 5.99391279931572e-01
1.91000000  4.08153256023696e-01 5.91846743987055e-01
1.92000000  4.15683781902749e-01 5.84316218108058e-01
1.93000000  4.23181484063196e-01 5.76818515947668e-01
1.94000000  4.30627671013099e-01 5.69372328997821e-01
1.95000000  4.38003845614929e-01 5.61996154396047e-01
1.96000000  4.45291776735951e-01 5.54708223275081e-01
1.97000000  4.52473570081443e-01 5.47526429929645e-01
1.98000000  4.59531737938143e-01 5.40468262073002e-01
1.99000000  4.66449267558021e-01 5.33550732453180e-01
2.00000000  4.73209687916080e-01 5.26790312095177e-01
2.01000000  4.79797134580395e-01 5.20202865430919e-01
2.02000000  4.86196412438071e-01 5.13803587573299e-01
2.03000000  4.92393056027154e-01 5.07606943984272e-01
2.04000000  4.98373387231771e-01 5.01626612779712e-01
2.05000000  5.04124570105915e-01 4.95875429905623e-01
2.06000000  5.09634662600321e-01 4.90365337411275e-01
2.07000000  5.14892664976696e-01 4.85107335034956e-01
2.08000000  5.19888564704304e-01 4.80111435307403e-01
2.09000000  5.24613377645350e-01 4.75386622366414e-01
2.10000000  5.29059185347922e-01 4.70940814663899e-01
2.11000000  5.33219168278262e-01 4.66780831733615e-01
2.12000000  5.37087634837910e-01 4.62912365174024e-01
2.13000000  5.40660046025672e-01 4.59339953986317e-01
2.14000000  5.43933035619513e-01 4.56066964392533e-01
2.15000000  5.46904425769137e-01 4.53095574242965e-01
2.16000000  5.49573237906350e-01 4.50426762105808e-01
2.17000000  5.51939698897090e-01 4.48060301115125e-01
2.18000000  5.54005242376308e-01 4.45994757635963e-01
2.19000000  5.55772505224639e-01 4.44227494787688e-01
2.20000000  5.57245319163884e-01 4.42754680848499e-01
2.21000000  5.58428697466777e-01 4.41571302545662e-01
2.22000000  5.59328816795206e-01 4.40671183217290e-01
2.23000000  5.59952994199954e-01 4.40047005812598e-01
2.24000000  5.60309659334090e-01 4.39690340678519e-01
2.25000000  5.60408321951238e-01 4.39591678061426e-01
2.26000000  5.60259534779097e-01 4.39740465233625e-01
2.27000000  5.59874851877631e-01 4.40125148135146e-01
2.28000000  5.59266782610313e-01 4.40733217402520e-01
2.29000000  5.58448741375469e-01 4.41551258637421e-01
2.30000000  5.57434993263259e-01 4.42565006749687e-01
2.31000000  5.56240595821876e-01 4.43759404191127e-01
2.32000000  5.54881337134183e-01 4.45118662878876e-01
2.33000000  5.53373670423129e-01 4.46626329589986e-01
2.34000000  5.51734645420815e-01 4.48265354592357e-01
2.35000000  5.49981836751911e-01 4.50018163261316e-01
2.36000000  5.48133269597267e-01 4.51866730416017e-01
2.37000000  5.46207342917758e-01 4.53792657095582e-01
2.38000000  5.44222750531875e-01 4.55777249481521e-01
2.39000000  5.42198400352847e-01 4.57801599660606e-01
2.40000000  5.40153332102519e-01 4.59846667910990e-01
2.41000000  5.38106633829371e-01 4.61893366184195e-01
2.42000000  5.36077357567098e-01 4.63922642446524e-01
2.43000000  5.34084434478000e-01 4.65915565535679e-01
2.44000000  5.32146589831832e-01 4.67853410181902e-01
2.45000000  5.30282258175939e-01 4.69717741837852e-01
2.46000000  5.28509499056139e-01 4.71490500957708e-01
2.47000000  5.26845913650081e-01 4.73154086363822e-01
2.48000000  5.25308562675512e-01 4.74691437338447e-01
2.49000000  5.23913885935082e-01 4.76086114078934e-01
2.50000000  5.22677623856936e-01 4.77322376157136e-01
2.51000000  5.21614741386395e-01 4.78385258627734e-01
2.52000000  5.20739354578441e-01 4.79260645435743e-01
2.53000000  5.20064660233569e-01 4.79935339780672e-01
2.54000000  5.19602868910771e-01 4.80397131103526e-01
2.55000000  5.19365141641052e-01 4.80634858373301e-01
2.56000000  5.19361530652895e-01 4.80638469361514e-01
2.57000000  5.19600924407558e-01 4.80399075606908e-01
2.58000000  5.20090997227046e-01 4.79909002787477e-01
2.59000000  5.20838163781018e-01 4.79161836233561e-01
2.60000000  5.21847538680925e-01 4.78152461333710e-01
2.61000000  5.23122901410257e-01 4.76877098604434e-01
2.62000000  5.24666666799109e-01 4.75333333215638e-01
2.63000000  5.26479861229295e-01 4.73520138785509e-01
2.64000000  5.28562104733122e-01 4.71437895281738e-01
2.65000000  5.30911599124745e-01 4.69088400890171e-01
2.66000000  5.33525122277794e-01 4.66474877737178e-01
2.67000000  5.36398028636939e-01 4.63601971378090e-01
2.68000000  5.39524256024139e-01 4.60475743990946e-01
2.69000000  5.42896338772876e-01 4.57103661242265e-01
2.70000000  5.46505427195550e-01 4.53494572819648e-01
2.71000000  5.50341313360781e-01 4.49658686654473e-01
2.72000000  5.54392463128600e-01 4.45607536886710e-01
2.73000000  5.58646054362565e-01 4.41353945652802e-01
2.74000000  5.63088021208963e-01 4.36911978806460e-01
2.75000000  5.67703104304426e-01 4.32296895711053e-01
2.76000000  5.72474906744761e-01 4.27525093270774e-01
2.77000000  5.77385955619692e-01 4.22614044395900e-01
2.78000000  5.82417768890618e-01 4.17582231125030e-01
2.79000000  5.87550927361668e-01 4.12449072654037e-01
2.80000000  5.92765151468252e-01 4.07234848547508e-01
2.81000000  5.98039382582323e-01 4.01960617433494e-01
2.82000000  6.03351868509590e-01 3.96648131506283e-01
2.83000000  6.08680252831288e-01 3.91319747184642e-01
2.84000000  6.14001667721796e-01 3.85998332294190e-01
2.85000000  6.19292829853639e-01 3.80707170162403e-01
2.86000000  6.24530138983226e-01 3.75469861032873e-01
2.87000000  6.29689778794294e-01 3.70310221221861e-01
2.88000000  6.34747819561440e-01 3.65252180454771e-01
2.89000000  6.39680322183488e-01 3.60319677832779e-01
2.90000000  6.44463443125856e-01 3.55536556890468e-01
2.91000000  6.49073539802569e-01 3.50926460213811e-01
2.92000000  6.53487275922279e-01 3.46512724094158e-01
2.93000000  6.57681726318522e-01 3.42318273697970e-01
2.94000000  6.61634480782695e-01 3.38365519233853e-01
2.95000000  6.65323746418691e-01 3.34676253597914e-01
2.96000000  6.68728448041030e-01 3.31271551975631e-01
2.97000000  6.71828326143511e-01 3.28171673873207e-01
2.98000000  6.74604031972959e-01 3.25395968043815e-01
2.99000000  6.77037219252570e-01 3.22962780764260e-01
3.00000000  6.79110632111531e-01 3.20889367905356e-01
3.01000000  6.80808188792114e-01 3.19191811224828e-01
3.02000000  6.82115060722144e-01 3.17884939294855e-01
3.03000000  6.83017746559596e-01 3.16982253457459e-01
3.04000000  6.83504140837103e-01 3.16495859180008e-01
3.05000000  6.83563596857030e-01 3.16436403160137e-01
3.06000000  6.83186983512733e-01 3.16813016504492e-01
3.07000000  6.82366735738198e-01 3.17633264279082e-01
3.08000000  6.81096898316656e-01 3.18903101700681e-01
3.09000000  6.79373162808567e-01 3.20626837208826e-01
3.10000000  6.77192897390722e-01 3.22807102626728e-01
3.11000000  6.74555169430660e-01 3.25444830586845e-01
3.12000000  6.71460760654271e-01 3.28539239363291e-01
3.13000000  6.67912174798966e-01 3.32087825218652e-01
3.14000000  6.63913637680144e-01 3.36086362337531e-01
3.15000000  6.59471089634544e-01 3.40528910383187e-01
3.16000000  6.54592170340389e-01 3.45407829677398e-01
3.17000000  6.49286196050733e-01 3.50713803967110e-01
3.18000000  6.43564129312984e-01 3.56435870704916e-01
3.19000000  6.37438541283930e-01 3.62561458734026e-01
3.20000000  6.30923566785699e-01 3.69076433232313e-01
3.21000000  6.24034852283513e-01 3.75965147734556e-01
3.22000000  6.16789497000955e-01 3.83210503017170e-01
3.23000000  6.09205987422299e-01 3.90794012595882e-01
3.24000000  6.01304125464261e-01 3.98695874553977e-01
3.25000000  5.93104950631050e-01 4.06895049387244e-01
3.26000000  5.84630656496708e-01 4.15369343521641e-01
3.27000000  5.75904501887192e-01 4.24095498131214e-01
3.28000000  5.66950717161413e-01 4.33049282857050e-01
3.29000000  5.57794406015297e-01 4.42205594003221e-01
3.30000000  5.48461443255706e-01 4.51538556762870e-01
3.31000000  5.38978369011708e-01 4.61021631006923e-01
3.32000000  5.29372279869051e-01 4.70627720149636e-01
3.33000000  5.19670717429635e-01 4.80329282589108e-01
3.34000000  5.09901554811277e-01 4.90098445207523e-01
3.35000000  5.00092881614001e-01 4.99907118404855e-01
3.36000000  4.90272887887379e-01 5.09727112131534e-01
3.37000000  4.80469747639069e-01 5.19530252379900e-01
3.38000000  4.70711502427654e-01 5.29288497591370e-01
3.39000000  4.61025945583022e-01 5.38974054436060e-01
3.40000000  4.51440507594997e-01 5.48559492424141e-01
3.41000000  4.41982143205645e-01 5.58017856813550e-01
3.42000000  4.32677220732646e-01 5.67322779286604e-01
3.43000000  4.23551414140463e-01 5.76448585878844e-01
3.44000000  4.14629598362720e-01 5.85370401656643e-01
3.45000000  4.05935748363354e-01 5.94064251656065e-01
3.46000000  3.97492842405725e-01 6.02507157613751e-01
3.47000000  3.89322769978182e-01 6.10677230041349e-01
3.48000000  3.81446244801547e-01 6.18553755218042e-01
3.49000000  3.73882723318804e-01 6.26117276700841e-01
3.50000000  3.66650329040129e-01 6.33349670979572e-01
3.51000000  3.59765783087246e-01 6.40234216932511e-01
3.52000000  3.53244341250350e-01 6.46755658769463e-01
3.53000000  3.47099737838401e-01 6.52900262181469e-01
3.54000000  3.41344136569834e-01 6.58655863450092e-01
3.55000000  3.35988088715720e-01 6.64011911304263e-01
3.56000000  3.31040498671357e-01 6.68959501348681e-01
3.57000000  3.26508597095416e-01 6.73491402924679e-01
3.58000000  3.22397921718184e-01 6.77602078301968e-01
3.59000000  3.18712305882506e-01 6.81287694137702e-01
3.60000000  3.15453874842768e-01 6.84546125177496e-01
3.61000000  3.12623049808982e-01 6.87376950211338e-01
3.62000000  3.10218559684913e-01 6.89781440335464e-01
3.63000000  3.08237460411422e-01 6.91762539609011e-01
3.64000000  3.06675161788980e-01 6.93324838231509e-01
3.65000000  3.05525461616846e-01 6.94474538403699e-01
3.66000000  3.04780586950898e-01 6.95219413069704e-01
3.67000000  3.04431242247695e-01 6.95568757772963e-01
3.68000000  3.04466664129291e-01 6.95533335891423e-01
