#"time"      "diagonal of the density matrix"
0.00000000  1.00000000000000e+00 0.00000000000000e+00
0.02000000  9.99890962440818e-01 1.09037559265150e-04
0.04000000  9.99564434842899e-01 4.35565157266852e-04
0.06000000  9.99021379706792e-01 9.78620293456010e-04
0.08000000  9.98262871543515e-01 1.73712845681562e-03
0.10000000  9.97290095389237e-01 2.70990461117500e-03
0.12000000  9.96104345284890e-01 3.89565471560344e-03
0.14000000  9.94707022722172e-01 5.29297727840230e-03
0.16000000  9.93099635057422e-01 6.90036494323318e-03
0.18000000  9.91283793894796e-01 8.71620610593931e-03
0.20000000  9.89261213440178e-01 1.07387865606374e-02
0.22000000  9.87033708827218e-01 1.29662911736779e-02
0.24000000  9.84603194416880e-01 1.53968055840953e-02
0.26000000  9.81971682071866e-01 1.80283179291884e-02
0.28000000  9.79141279407234e-01 2.08587205938998e-02
0.30000000  9.76114188018531e-01 2.38858119826816e-02
0.32000000  9.72892701688727e-01 2.71072983125636e-02
0.34000000  9.69479204575207e-01 3.05207954261624e-02
0.36000000  9.65876169378051e-01 3.41238306233964e-02
0.38000000  9.62086155490826e-01 3.79138445106990e-02
0.40000000  9.58111807135056e-01 4.18881928665460e-02
0.42000000  9.53955851479535e-01 4.60441485221446e-02
0.44000000  9.49621096745603e-01 5.03789032561538e-02
0.46000000  9.45110430299495e-01 5.48895697023383e-02
0.48000000  9.40426816732826e-01 5.95731832690838e-02
0.50000000  9.35573295932256e-01 6.44267040697305e-02
0.52000000  9.30552981139352e-01 6.94470188627106e-02
0.54000000  9.25369057001633e-01 7.46309430005045e-02
0.56000000  9.20024777615753e-01 7.99752223864603e-02
0.58000000  9.14523464563741e-01 8.54765354385479e-02
0.60000000  9.08868504943210e-01 9.11314950591537e-02
0.62000000  9.03063349392394e-01 9.69366506100448e-02
0.64000000  8.97111510110846e-01 1.02888489891667e-01
0.66000000  8.91016558876620e-01 1.08983441125968e-01
0.68000000  8.84782125060697e-01 1.15217874941965e-01
0.70000000  8.78411893639422e-01 1.21588106363314e-01
0.72000000  8.71909603205659e-01 1.28090396797151e-01
0.74000000  8.65279043979359e-01 1.34720956023525e-01
0.76000000  8.58524055818199e-01 1.41475944184758e-01
0.78000000  8.51648526228931e-01 1.48351473774100e-01
0.80000000  8.44656388380025e-01 1.55343611623079e-01
0.82000000  8.37551619116207e-01 1.62448380886969e-01
0.84000000  8.30338236975414e-01 1.69661763027835e-01
0.86000000  8.23020300208687e-01 1.76979699794634e-01
0.88000000  8.15601904803508e-01 1.84398095199885e-01
0.90000000  8.08087182511020e-01 1.91912817492445e-01
0.92000000  8.00480298877576e-01 1.99519701125962e-01
0.94000000  7.92785451281026e-01 2.07214548722584e-01
0.96000000  7.85006866972120e-01 2.14993133031561e-01
0.98000000  7.77148801121386e-01 2.22851198882367e-01
1.00000000  7.69215534871802e-01 2.30784465132021e-01
1.02000000  7.61211373397592e-01 2.38788626606302e-01
1.04000000  7.53140643969400e-01 2.46859356034565e-01
1.06000000  7.45007694026116e-01 2.54992305977920e-01
1.08000000  7.36816889253590e-01 2.63183110750517e-01
1.10000000  7.28572611670439e-01 2.71427388333738e-01
1.12000000  7.20279257721141e-01 2.79720742283107e-01
1.14000000  7.11941236376587e-01 2.88058763627730e-01
1.16000000  7.03562967242247e-01 2.96437032762141e-01
1.18000000  6.95148878674063e-01 3.04851121330395e-01
1.20000000  6.86703405902203e-01 3.13296594102325e-01
1.22000000  6.78230989162752e-01 3.21769010841846e-01
1.24000000  6.69736071837431e-01 3.30263928167236e-01
1.26000000  6.61223098601392e-01 3.38776901403344e-01
1.28000000  6.52696513579144e-01 3.47303486425662e-01
1.30000000  6.44160758508633e-01 3.55839241496242e-01
1.32000000  6.35620270913506e-01 3.64379729091437e-01
1.34000000  6.27079482283551e-01 3.72920517721461e-01
1.36000000  6.18542816263309e-01 3.81457183741773e-01
1.38000000  6.10014686848846e-01 3.89985313156304e-01
1.40000000  6.01499496592658e-01 3.98500503412561e-01
1.42000000  5.93001634816662e-01 4.06998365188625e-01
1.44000000  5.84525475833248e-01 4.15474524172107e-01
1.46000000  5.76075377174324e-01 4.23924622831100e-01
1.48000000  5.67655677828309e-01 4.32344322177183e-01
1.50000000  5.59270696485016e-01 4.40729303520544e-01
1.52000000  5.50924729788353e-01 4.49075270217275e-01
1.54000000  5.42622050596783e-01 4.57377949408912e-01
1.56000000  5.34366906251478e-01 4.65633093754285e-01
1.58000000  5.26163516852089e-01 4.73836483153743e-01
1.60000000  5.18016073540081e-01 4.81983926465818e-01
1.62000000  5.09928736789562e-01 4.90071263216405e-01
1.64000000  5.01905634705546e-01 4.98094365300488e-01
1.66000000  4.93950861329592e-01 5.06049138676510e-01
1.68000000  4.86068474952777e-01 5.13931525053392e-01
1.70000000  4.78262496435948e-01 5.21737503570288e-01
1.72000000  4.70536907537232e-01 5.29463092469072e-01
1.74000000  4.62895649246760e-01 5.37104350759611e-01
1.76000000  4.55342620128605e-01 5.44657379877833e-01
1.78000000  4.47881674669917e-01 5.52118325336587e-01
1.80000000  4.40516621637272e-01 5.59483378369300e-01
1.82000000  4.33251222440240e-01 5.66748777566398e-01
1.84000000  4.26089189502234e-01 5.73910810504471e-01
1.86000000  4.19034184638659e-01 5.80965815368113e-01
1.88000000  4.12089817442457e-01 5.87910182564382e-01
1.90000000  4.05259643677110e-01 5.94740356329796e-01
1.92000000  3.98547163677231e-01 6.01452836329741e-01
1.94000000  3.91955820756844e-01 6.08044179250195e-01
1.96000000  3.85488999625507e-01 6.14511000381598e-01
1.98000000  3.79150024812459e-01 6.20849975194713e-01
2.00000000  3.72942159098956e-01 6.27057840908283e-01
2.02000000  3.66868601959033e-01 6.33131398048273e-01
2.04000000  3.60932488008918e-01 6.39067511998455e-01
2.06000000  3.55136885465373e-01 6.44863114542066e-01
2.08000000  3.49484794613241e-01 6.50515205394265e-01
2.10000000  3.43979146282532e-01 6.56020853725041e-01
2.12000000  3.38622800335381e-01 6.61377199672259e-01
2.14000000  3.33418544163270e-01 6.66581455844435e-01
2.16000000  3.28369091194910e-01 6.71630908812862e-01
2.18000000  3.23477079415213e-01 6.76522920592626e-01
2.20000000  3.18745069895840e-01 6.81254930112066e-01
2.22000000  3.14175545337811e-01 6.85824454670161e-01
2.24000000  3.09770908626708e-01 6.90229091381331e-01
2.26000000  3.05533481401038e-01 6.94466518607068e-01
2.28000000  3.01465502634359e-01 6.98534497373814e-01
2.30000000  2.97569127231786e-01 7.02430872776454e-01
2.32000000  2.93846424641557e-01 7.06153575366749e-01
2.34000000  2.90299377482346e-01 7.09700622526027e-01
2.36000000  2.86929880187061e-01 7.13070119821380e-01
2.38000000  2.83739737663895e-01 7.16260262344613e-01
2.40000000  2.80730663975437e-01 7.19269336033137e-01
2.42000000  2.77904281036672e-01 7.22095718971969e-01
2.44000000  2.75262117332746e-01 7.24737882675963e-01
2.46000000  2.72805606657409e-01 7.27194393351367e-01
2.48000000  2.70536086873068e-01 7.29463913135776e-01
2.50000000  2.68454798693439e-01 7.31545201315472e-01
2.52000000  2.66562890028088e-01 7.33437109980890e-01
2.54000000  2.64861439329135e-01 7.35138560679910e-01
2.56000000  2.63351420324389e-01 7.36648579684724e-01
2.58000000  2.62033694632852e-01 7.37966305376329e-01
2.60000000  2.60909010616188e-01 7.39090989393061e-01
2.62000000  2.59978002292951e-01 7.40021997716366e-01
2.64000000  2.59241188317181e-01 7.40758811692204e-01
2.66000000  2.58698971022948e-01 7.41301028986505e-01
2.68000000  2.58351635536403e-01 7.41648364473118e-01
2.70000000  2.58199348956851e-01 7.41800651052738e-01
2.72000000  2.58242159608342e-01 7.41757840401315e-01
2.74000000  2.58479996363245e-01 7.41520003646480e-01
2.76000000  2.58912668039200e-01 7.41087331970594e-01
2.78000000  2.59539862870851e-01 7.40460137139011e-01
2.80000000  2.60361148057677e-01 7.39638851952254e-01
2.82000000  2.61375969389211e-01 7.38624030620788e-01
2.84000000  2.62583650948892e-01 7.37416349061175e-01
2.86000000  2.63983394897735e-01 7.36016605112402e-01
2.88000000  2.65574281338940e-01 7.34425718671265e-01
2.90000000  2.67355268264539e-01 7.32644731745735e-01
2.92000000  2.69325191585077e-01 7.30674808425266e-01
2.94000000  2.71482765243291e-01 7.28517234767120e-01
2.96000000  2.73826581412679e-01 7.26173418597802e-01
2.98000000  2.76355110781773e-01 7.23644889228776e-01
3.00000000  2.79066702924888e-01 7.20933297085731e-01
3.02000000  2.81959586760000e-01 7.18040413250688e-01
3.04000000  2.85031871094396e-01 7.14968128916361e-01
3.06000000  2.88281545258601e-01 7.11718454752226e-01
3.08000000  2.91706479829041e-01 7.08293520181855e-01
3.10000000  2.95304427439833e-01 7.04695572571132e-01
3.12000000  2.99073023683965e-01 7.00926976327070e-01
3.14000000  3.03009788104094e-01 6.96990211907011e-01
3.16000000  3.07112125273075e-01 6.92887874738100e-01
3.18000000  3.11377325964255e-01 6.88622674046989e-01
3.20000000  3.15802568411477e-01 6.84197431599837e-01
3.22000000  3.20384919658646e-01 6.79615080352738e-01
3.24000000  3.25121336998624e-01 6.74878663012829e-01
3.26000000  3.30008669501121e-01 6.69991330510402e-01
3.28000000  3.35043659629159e-01 6.64956340382434e-01
3.30000000  3.40222944943585e-01 6.59777055068078e-01
3.32000000  3.45543059895036e-01 6.54456940116697e-01
3.34000000  3.51000437702623e-01 6.48999562309180e-01
3.36000000  3.56591412318549e-01 6.43408587693325e-01
3.38000000  3.62312220477747e-01 6.37687779534196e-01
3.40000000  3.68159003831550e-01 6.31840996180464e-01
3.42000000  3.74127811164280e-01 6.25872188847804e-01
3.44000000  3.80214600691593e-01 6.19785399320561e-01
3.46000000  3.86415242439261e-01 6.13584757572964e-01
3.48000000  3.92725520701038e-01 6.07274479311257e-01
3.50000000  3.99141136574116e-01 6.00858863438250e-01
3.52000000  4.05657710570603e-01 5.94342289441833e-01
3.54000000  4.12270785303368e-01 5.87729214709139e-01
3.56000000  4.18975828244490e-01 5.81024171768087e-01
3.58000000  4.25768234554475e-01 5.74231765458173e-01
3.60000000  4.32643329980295e-01 5.67356670032424e-01
3.62000000  4.39596373820251e-01 5.60403626192538e-01
3.64000000  4.46622561953531e-01 5.53377438059329e-01
3.66000000  4.53717029932295e-01 5.46282970080636e-01
3.68000000  4.60874856134005e-01 5.39125143878997e-01
3.70000000  4.68091064971664e-01 5.31908935041409e-01
3.72000000  4.75360630159531e-01 5.24639369853613e-01
3.74000000  4.82678478031821e-01 5.17321521981394e-01
3.76000000  4.90039490911822e-01 5.09960509101464e-01
3.78000000  4.97438510528792e-01 5.02561489484565e-01
3.80000000  5.04870341479930e-01 4.95129658533497e-01
3.82000000  5.12329754734673e-01 4.87670245278826e-01
3.84000000  5.19811491178473e-01 4.80188508835097e-01
3.86000000  5.27310265193207e-01 4.72689734820435e-01
3.88000000  5.34820768271260e-01 4.65179231742453e-01
3.90000000  5.42337672660324e-01 4.57662327353459e-01
3.92000000  5.49855635035883e-01 4.50144364977971e-01
3.94000000  5.57369300198312e-01 4.42630699815614e-01
3.96000000  5.64873304791497e-01 4.35126695222500e-01
3.98000000  5.72362281039840e-01 4.27637718974229e-01
4.00000000  5.79830860500472e-01 4.20169139513668e-01
4.02000000  5.87273677827490e-01 4.12726322186721e-01
4.04000000  5.94685374544999e-01 4.05314625469283e-01
4.06000000  6.02060602825730e-01 3.97939397188624e-01
4.08000000  6.09394029271976e-01 3.90605970742450e-01
4.10000000  6.16680338695607e-01 3.83319661318890e-01
4.12000000  6.23914237893875e-01 3.76085762120693e-01
4.14000000  6.31090459417767e-01 3.68909540596872e-01
4.16000000  6.38203765329625e-01 3.61796234685086e-01
4.18000000  6.45248950946782e-01 3.54751049068001e-01
4.20000000  6.52220848567967e-01 3.47779151446888e-01
4.22000000  6.59114331179241e-01 3.40885668835685e-01
4.24000000  6.65924316136248e-01 3.34075683878749e-01
4.26000000  6.72645768819593e-01 3.27354231195476e-01
4.28000000  6.79273706260164e-01 3.20726293754976e-01
4.30000000  6.85803200731279e-01 3.14196799283934e-01
4.32000000  6.92229383304529e-01 3.07770616710755e-01
4.34000000  6.98547447366275e-01 3.01452552649081e-01
4.36000000  7.04752652091740e-01 2.95247347923687e-01
4.38000000  7.10840325873736e-01 2.89159674141763e-01
4.40000000  7.16805869703082e-01 2.83194130312489e-01
4.42000000  7.22644760497815e-01 2.77355239517827e-01
4.44000000  7.28352554378384e-01 2.71647445637330e-01
4.46000000  7.33924889886029e-01 2.66075110129757e-01
4.48000000  7.39357491141652e-01 2.60642508874206e-01
4.50000000  7.44646170942501e-01 2.55353829073428e-01
4.52000000  7.49786833794120e-01 2.50213166221881e-01
4.54000000  7.54775478875001e-01 2.45224521141072e-01
4.56000000  7.59608202931532e-01 2.40391797084612e-01
4.58000000  7.64281203100844e-01 2.35718796915373e-01
4.60000000  7.68790779659269e-01 2.31209220357020e-01
4.62000000  7.73133338694187e-01 2.26866661322174e-01
4.64000000  7.77305394697124e-01 2.22694605319308e-01
4.66000000  7.81303573076043e-01 2.18696426940461e-01
4.68000000  7.85124612584849e-01 2.14875387431727e-01
4.70000000  7.88765367668224e-01 2.11234632348424e-01
4.72000000  7.92222810719990e-01 2.07777189296729e-01
4.74000000  7.95494034253280e-01 2.04505965763511e-01
4.76000000  7.98576252980887e-01 2.01423747035976e-01
4.78000000  8.01466805804270e-01 1.98533194212665e-01
4.80000000  8.04163157709752e-01 1.95836842307254e-01
4.82000000  8.06662901570574e-01 1.93337098446505e-01
4.84000000  8.08963759853519e-01 1.91036240163631e-01
4.86000000  8.11063586228972e-01 1.88936413788250e-01
4.88000000  8.12960367083300e-01 1.87039632933995e-01
4.90000000  8.14652222932594e-01 1.85347777084771e-01
4.92000000  8.16137409736884e-01 1.83862590280554e-01
4.94000000  8.17414320114004e-01 1.82585679903506e-01
4.96000000  8.18481484452436e-01 1.81518515565145e-01
4.98000000  8.19337571922499e-01 1.80662428095154e-01
5.00000000  8.19981391385368e-01 1.80018608632357e-01
5.02000000  8.20411884347926e-01 1.79588115669872e-01
5.04000000  8.20628083345883e-01 1.79371916671987e-01
5.06000000  8.20629145698970e-01 1.79370854318971e-01
5.08000000  8.20414361327130e-01 1.79585638690883e-01
5.10000000  8.19983153258905e-01 1.80016846759180e-01
5.12000000  8.19335078066777e-01 1.80664921951380e-01
5.14000000  8.18469826229124e-01 1.81530173789105e-01
5.16000000  8.17387222418502e-01 1.82612777599798e-01
5.18000000  8.16087225715971e-01 1.83912774302402e-01
5.20000000  8.14569929751237e-01 1.85430070267208e-01
5.22000000  8.12835562768415e-01 1.87164437250102e-01
5.24000000  8.10884487617214e-01 1.89115512401374e-01
5.26000000  8.08717201669438e-01 1.91282798349223e-01
5.28000000  8.06334336660666e-01 1.93665663358067e-01
5.30000000  8.03736658457057e-01 1.96263341561748e-01
5.32000000  8.00925066747233e-01 1.99074933271644e-01
5.34000000  7.97900594659226e-01 2.02099405359724e-01
5.36000000  7.94664408302528e-01 2.05335591716493e-01
5.38000000  7.91217806235297e-01 2.08782193783798e-01
5.40000000  7.87562218856804e-01 2.12437781162363e-01
5.42000000  7.83699207725278e-01 2.16300792293961e-01
5.44000000  7.79630464801277e-01 2.20369535218034e-01
5.46000000  7.75357811616808e-01 2.24642188402575e-01
5.48000000  7.70883198370422e-01 2.29116801649034e-01
5.50000000  7.66208702948546e-01 2.33791297070982e-01
5.52000000  7.61336529873365e-01 2.38663470146236e-01
5.54000000  7.56269009177585e-01 2.43730990842089e-01
5.56000000  7.51008595206455e-01 2.48991404813291e-01
5.58000000  7.45557865347465e-01 2.54442134672355e-01
5.60000000  7.39919518688142e-01 2.60080481331750e-01
5.62000000  7.34096374602467e-01 2.65903625417498e-01
5.64000000  7.28091371266383e-01 2.71908628753655e-01
5.66000000  7.21907564102994e-01 2.78092435917117e-01
5.68000000  7.15548124158012e-01 2.84451875862173e-01
5.70000000  7.09016336406097e-01 2.90983663614161e-01
5.72000000  7.02315597988752e-01 2.97684402031579e-01
5.74000000  6.95449416384471e-01 3.04550583635934e-01
5.76000000  6.88421407511870e-01 3.11578592508608e-01
5.78000000  6.81235293766596e-01 3.18764706253955e-01
5.80000000  6.73894901992801e-01 3.26105098027824e-01
5.82000000  6.66404161390039e-01 3.33595838630660e-01
5.84000000  6.58767101356478e-01 3.41232898664294e-01
5.86000000  6.50987849269329e-01 3.49012150751517e-01
5.88000000  6.43070628203467e-01 3.56929371817454e-01
5.90000000  6.35019754589224e-01 3.64980245431771e-01
5.92000000  6.26839635810397e-01 3.73160364210671e-01
5.94000000  6.18534767743529e-01 3.81465232277614e-01
5.96000000  6.10109732239564e-01 3.89890267781654e-01
5.98000000  6.01569194549024e-01 3.98430805472268e-01
6.00000000  5.92917900691882e-01 4.07082099329485e-01
6.02000000  5.84160674773325e-01 4.15839325248117e-01
6.04000000  5.75302416246682e-01 4.24697583774835e-01
6.06000000  5.66348097124772e-01 4.33651902896820e-01
6.08000000  5.57302759141007e-01 4.42697240880659e-01
6.10000000  5.48171510861595e-01 4.51828489160147e-01
6.12000000  5.38959524750221e-01 4.61040475271595e-01
6.14000000  5.29672034186651e-01 4.70327965835242e-01
6.16000000  5.20314330440682e-01 4.79685669581285e-01
6.18000000  5.10891759602959e-01 4.89108240419085e-01
6.20000000  5.01409719474146e-01 4.98590280547974e-01
6.22000000  4.91873656414044e-01 5.08126343608151e-01
6.24000000  4.82289062152210e-01 5.17710937870062e-01
6.26000000  4.72661470561708e-01 5.27338529460640e-01
6.28000000  4.62996454397654e-01 5.37003545624771e-01
6.30000000  4.53299622002218e-01 5.46700378020283e-01
6.32000000  4.43576613977803e-01 5.56423386044775e-01
6.34000000  4.33833099830148e-01 5.66166900192507e-01
6.36000000  4.24074774583116e-01 5.75925225439616e-01
6.38000000  4.14307355366975e-01 5.85692644655833e-01
6.40000000  4.04536577981997e-01 5.95463422040889e-01
6.42000000  3.94768193439231e-01 6.05231806583733e-01
6.44000000  3.85007964480328e-01 6.14992035542713e-01
6.46000000  3.75261662078339e-01 6.24738337944780e-01
6.48000000  3.65535061921404e-01 6.34464938101793e-01
6.50000000  3.55833940881297e-01 6.44166059141978e-01
6.52000000  3.46164073468812e-01 6.53835926554541e-01
6.54000000  3.36531228277995e-01 6.63468771745436e-01
6.56000000  3.26941164421232e-01 6.73058835602278e-01
6.58000000  3.17399627957269e-01 6.82600372066320e-01
6.60000000  3.07912348314206e-01 6.92087651709462e-01
6.62000000  2.98485034709571e-01 7.01514965314176e-01
6.64000000  2.89123372569561e-01 7.10876627454266e-01
6.66000000  2.79833019949594e-01 7.20166980074312e-01
6.68000000  2.70619603958295e-01 7.29380396065691e-01
6.70000000  2.61488717187068e-01 7.38511282836998e-01
6.72000000  2.52445914147443e-01 7.47554085876703e-01
6.74000000  2.43496707718351e-01 7.56503292305875e-01
6.76000000  2.34646565605543e-01 7.65353434418764e-01
6.78000000  2.25900906815341e-01 7.74099093209047e-01
6.80000000  2.17265098144942e-01 7.82734901879526e-01
6.82000000  2.08744450691496e-01 7.91255549333054e-01
6.84000000  2.00344216382178e-01 7.99655783642453e-01
6.86000000  1.92069584527498e-01 8.07930415497215e-01
6.88000000  1.83925678400082e-01 8.16074321624712e-01
6.90000000  1.75917551841162e-01 8.24082448183714e-01
6.92000000  1.68050185897022e-01 8.31949814127936e-01
6.94000000  1.60328485487644e-01 8.39671514537397e-01
6.96000000  1.52757276109788e-01 8.47242723915335e-01
6.98000000  1.45341300576759e-01 8.54658699448448e-01
7.00000000  1.38085215797078e-01 8.61914784228212e-01
7.02000000  1.30993589594304e-01 8.69006410431069e-01
7.04000000  1.24070897570220e-01 8.75929102455236e-01
7.06000000  1.17321520013601e-01 8.82678480011939e-01
7.08000000  1.10749738856765e-01 8.89250261168859e-01
7.10000000  1.04359734682107e-01 8.95640265343602e-01
7.12000000  9.81555837807865e-02 9.01844416245006e-01
7.14000000  9.21412552657443e-02 9.07858744760133e-01
7.16000000  8.63206082411883e-02 9.13679391784774e-01
7.18000000  8.06973890306844e-02 9.19302610995363e-01
7.20000000  7.52752284659652e-02 9.24724771560168e-01
7.22000000  7.00576392385451e-02 9.29942360787674e-01
7.24000000  6.50480133162090e-02 9.34951986710096e-01
7.26000000  6.02496194264232e-02 9.39750380599968e-01
7.28000000  5.56656006086796e-02 9.44334399417798e-01
7.30000000  5.12989718377712e-02 9.48701028188793e-01
7.32000000  4.71526177199510e-02 9.52847382306701e-01
7.34000000  4.32292902639136e-02 9.56770709762825e-01
7.36000000  3.95316067284878e-02 9.60468393298339e-01
