# time      expected energy level
0.00000000 0.00000000000000e+00
0.00100000 4.99344138960337e-05
0.00200000 1.99469255400830e-04
0.00300000 4.48182903543793e-04
0.00400000 7.95629817472136e-04
0.00500000 1.24134073694562e-03
0.00600000 1.78482288865831e-03
0.00700000 2.42556019640508e-03
0.00800000 3.16301349597574e-03
0.00900000 3.99662075929881e-03
0.01000000 4.92579732508983e-03
0.01100000 5.94993612649438e-03
0.01200000 7.06840792038572e-03
0.01300000 8.28056153575308e-03
0.01400000 9.58572413504341e-03
0.01500000 1.09832014585033e-02
0.01600000 1.24722780561080e-02
0.01700000 1.40522175540165e-02
0.01800000 1.57222629576099e-02
0.01900000 1.74816369225280e-02
0.02000000 1.93295419759776e-02
0.02100000 2.12651607806692e-02
0.02200000 2.32876564863890e-02
0.02300000 2.53961730538186e-02
0.02400000 2.75898354633415e-02
0.02500000 2.98677499405412e-02
0.02600000 3.22290043434159e-02
0.02700000 3.46726685760191e-02
0.02800000 3.71977948104316e-02
0.02900000 3.98034176348463e-02
0.03000000 4.24885544297418e-02
0.03100000 4.52522058998659e-02
0.03200000 4.80933563715882e-02
0.03300000 5.10109738471598e-02
0.03400000 5.40040102883528e-02
0.03500000 5.70714022572446e-02
0.03600000 6.02120713784409e-02
0.03700000 6.34249243359305e-02
0.03800000 6.67088529688511e-02
0.03900000 7.00627349465435e-02
0.04000000 7.34854344796802e-02
0.04100000 7.69758023681828e-02
0.04200000 8.05326758430226e-02
0.04300000 8.41548791288346e-02
0.04400000 8.78412244321257e-02
0.04500000 9.15905122123031e-02
0.04600000 9.54015307859582e-02
0.04700000 9.92730565847304e-02
0.04800000 1.03203855342405e-01
0.04900000 1.07192682779265e-01
0.05000000 1.11238284109210e-01
0.05100000 1.15339393818023e-01
0.05200000 1.19494736839063e-01
0.05300000 1.23703029782012e-01
0.05400000 1.27962980611425e-01
0.05500000 1.32273287874042e-01
0.05600000 1.36632641542276e-01
0.05700000 1.41039724771976e-01
0.05800000 1.45493214099132e-01
0.05900000 1.49991778228344e-01
0.06000000 1.54534078191471e-01
0.06100000 1.59118769409231e-01
0.06200000 1.63744502726609e-01
0.06300000 1.68409923095747e-01
0.06400000 1.73113668789379e-01
0.06500000 1.77854373327244e-01
0.06600000 1.82630667509310e-01
0.06700000 1.87441178512094e-01
0.06800000 1.92284528124398e-01
0.06900000 1.97159333963281e-01
0.07000000 2.02064212379412e-01
0.07100000 2.06997778552434e-01
0.07200000 2.11958644042399e-01
0.07300000 2.16945416740011e-01
0.07400000 2.21956704173391e-01
0.07500000 2.26991115070170e-01
0.07600000 2.32047256855630e-01
0.07700000 2.37123734002557e-01
0.07800000 2.42219150968244e-01
0.07900000 2.47332115371479e-01
0.08000000 2.52461236301490e-01
0.08100000 2.57605121138641e-01
0.08200000 2.62762377213588e-01
0.08300000 2.67931616276684e-01
0.08400000 2.73111454498563e-01
0.08500000 2.78300508338922e-01
0.08600000 2.83497394140425e-01
0.08700000 2.88700733063036e-01
0.08800000 2.93909153391228e-01
0.08900000 2.99121286491964e-01
0.09000000 3.04335763964162e-01
0.09100000 3.09551221829600e-01
0.09200000 3.14766305226192e-01
0.09300000 3.19979665754641e-01
0.09400000 3.25189956440693e-01
0.09500000 3.30395833872921e-01
0.09600000 3.35595964662081e-01
0.09700000 3.40789025394807e-01
0.09800000 3.45973696382013e-01
0.09900000 3.51148660711657e-01
0.10000000 3.56312611174264e-01
0.10100000 3.61464253567694e-01
0.10200000 3.66602300793778e-01
0.10300000 3.71725468450254e-01
0.10400000 3.76832480478975e-01
0.10500000 3.81922075758620e-01
0.10600000 3.86993004362630e-01
0.10700000 3.92044020228037e-01
0.10800000 3.97073883762487e-01
0.10900000 4.02081370699212e-01
0.11000000 4.07065272095741e-01
0.11100000 4.12024385563187e-01
0.11200000 4.16957513562784e-01
0.11300000 4.21863472639363e-01
0.11400000 4.26741097997045e-01
0.11500000 4.31589235472996e-01
0.11600000 4.36406735214721e-01
0.11700000 4.41192458930505e-01
0.11800000 4.45945288750949e-01
0.11900000 4.50664122333149e-01
0.12000000 4.55347862837775e-01
0.12100000 4.59995421946782e-01
0.12200000 4.64605731471243e-01
0.12300000 4.69177743528597e-01
0.12400000 4.73710418920952e-01
0.12500000 4.78202724440576e-01
0.12600000 4.82653644657380e-01
0.12700000 4.87062188043902e-01
0.12800000 4.91427376644012e-01
0.12900000 4.95748237500326e-01
0.13000000 5.00023811580236e-01
0.13100000 5.04253165237927e-01
0.13200000 5.08435384167954e-01
0.13300000 5.12569560354993e-01
0.13400000 5.16654795395408e-01
0.13500000 5.20690215142142e-01
0.13600000 5.24674970228626e-01
0.13700000 5.28608221353877e-01
0.13800000 5.32489135355918e-01
0.13900000 5.36316899710572e-01
0.14000000 5.40090730471470e-01
0.14100000 5.43809859544239e-01
0.14200000 5.47473523571821e-01
0.14300000 5.51080974531286e-01
0.14400000 5.54631494068113e-01
0.14500000 5.58124386371361e-01
0.14600000 5.61558961845323e-01
0.14700000 5.64934540585528e-01
0.14800000 5.68250470252277e-01
0.14900000 5.71506127133381e-01
0.15000000 5.74700898199699e-01
0.15100000 5.77834175714447e-01
0.15200000 5.80905374500598e-01
0.15300000 5.83913941931381e-01
0.15400000 5.86859342819312e-01
0.15500000 5.89741045529293e-01
0.15600000 5.92558534162935e-01
0.15700000 5.95311325958605e-01
0.15800000 5.97998963224600e-01
0.15900000 6.00620993583277e-01
0.16000000 6.03176973419121e-01
0.16100000 6.05666489066799e-01
0.16200000 6.08089158615748e-01
0.16300000 6.10444610714665e-01
0.16400000 6.12732477509017e-01
0.16500000 6.14952414630319e-01
0.16600000 6.17104113426147e-01
0.16700000 6.19187283571204e-01
0.16800000 6.21201636255603e-01
0.16900000 6.23146897800526e-01
0.17000000 6.25022830225944e-01
0.17100000 6.26829222432683e-01
0.17200000 6.28565866980947e-01
0.17300000 6.30232563307571e-01
0.17400000 6.31829142202736e-01
0.17500000 6.33355468556054e-01
0.17600000 6.34811417004567e-01
0.17700000 6.36196863029428e-01
0.17800000 6.37511705519385e-01
0.17900000 6.38755881369557e-01
0.18000000 6.39929346012003e-01
0.18100000 6.41032053614637e-01
0.18200000 6.42063971909849e-01
0.18300000 6.43025105932779e-01
0.18400000 6.43915488684344e-01
0.18500000 6.44735154520171e-01
0.18600000 6.45484141927599e-01
0.18700000 6.46162521154814e-01
0.18800000 6.46770398080670e-01
0.18900000 6.47307886910600e-01
0.19000000 6.47775099313852e-01
0.19100000 6.48172169322241e-01
0.19200000 6.48499270357818e-01
0.19300000 6.48756593957442e-01
0.19400000 6.48944327010730e-01
0.19500000 6.49062667535557e-01
0.19600000 6.49111851489827e-01
0.19700000 6.49092143173092e-01
0.19800000 6.49003805411551e-01
0.19900000 6.48847101692917e-01
0.20000000 6.48622326709634e-01
0.20100000 6.48329811504852e-01
0.20200000 6.47969893517575e-01
0.20300000 6.47542903700504e-01
0.20400000 6.47049193438965e-01
0.20500000 6.46489153993943e-01
0.20600000 6.45863193754702e-01
0.20700000 6.45171712635884e-01
0.20800000 6.44415118503057e-01
0.20900000 6.43593856866591e-01
0.21000000 6.42708401288568e-01
0.21100000 6.41759220647955e-01
0.21200000 6.40746780451861e-01
0.21300000 6.39671575966958e-01
0.21400000 6.38534138754446e-01
0.21500000 6.37335004444263e-01
0.21600000 6.36074697836179e-01
0.21700000 6.34753761466889e-01
0.21800000 6.33372777381926e-01
0.21900000 6.31932343289636e-01
0.22000000 6.30433044322017e-01
0.22100000 6.28875469800640e-01
0.22200000 6.27260245538465e-01
0.22300000 6.25588024512028e-01
0.22400000 6.23859451572253e-01
0.22500000 6.22075163781529e-01
0.22600000 6.20235825739476e-01
0.22700000 6.18342137573971e-01
0.22800000 6.16394800880291e-01
0.22900000 6.14394501869930e-01
0.23000000 6.12341941178672e-01
0.23100000 6.10237857813819e-01
0.23200000 6.08083004600745e-01
0.23300000 6.05878117583831e-01
0.23400000 6.03623932827495e-01
0.23500000 6.01321220985805e-01
0.23600000 5.98970778479315e-01
0.23700000 5.96573390076641e-01
0.23800000 5.94129828145052e-01
0.23900000 5.91640889731625e-01
0.24000000 5.89107406029644e-01
0.24100000 5.86530206949879e-01
0.24200000 5.83910102437869e-01
0.24300000 5.81247913103160e-01
0.24400000 5.78544496131992e-01
0.24500000 5.75800720414699e-01
0.24600000 5.73017433917539e-01
0.24700000 5.70195480233393e-01
0.24800000 5.67335735033672e-01
0.24900000 5.64439097957674e-01
0.25000000 5.61506453525097e-01
0.25100000 5.58538669229454e-01
0.25200000 5.55536633915418e-01
0.25300000 5.52501268694291e-01
0.25400000 5.49433490620756e-01
0.25500000 5.46334192345780e-01
0.25600000 5.43204273156297e-01
0.25700000 5.40044666601877e-01
0.25800000 5.36856315669629e-01
0.25900000 5.33640138491375e-01
0.26000000 5.30397044390771e-01
0.26100000 5.27127971809738e-01
0.26200000 5.23833881079552e-01
0.26300000 5.20515714133593e-01
0.26400000 5.17174391413914e-01
0.26500000 5.13810851090027e-01
0.26600000 5.10426061357896e-01
0.26700000 5.07020983677648e-01
0.26800000 5.03596550962094e-01
0.26900000 5.00153698644634e-01
0.27000000 4.96693393744574e-01
0.27100000 4.93216610418976e-01
0.27200000 4.89724294380735e-01
0.27300000 4.86217378229569e-01
0.27400000 4.82696820446807e-01
0.27500000 4.79163599175717e-01
0.27600000 4.75618671187568e-01
0.27700000 4.72062967608082e-01
0.27800000 4.68497433550519e-01
0.27900000 4.64923041703148e-01
0.28000000 4.61340755544454e-01
0.28100000 4.57751506283959e-01
0.28200000 4.54156223620396e-01
0.28300000 4.50555865965854e-01
0.28400000 4.46951396655541e-01
0.28500000 4.43343747440416e-01
0.28600000 4.39733832934465e-01
0.28700000 4.36122590296301e-01
0.28800000 4.32510974105689e-01
0.28900000 4.28899914996532e-01
0.29000000 4.25290314238304e-01
0.29100000 4.21683083403805e-01
0.29200000 4.18079159133146e-01
0.29300000 4.14479466686918e-01
0.29400000 4.10884895855116e-01
0.29500000 4.07296331123212e-01
0.29600000 4.03714682790460e-01
0.29700000 4.00140864063456e-01
0.29800000 3.96575753953339e-01
0.29900000 3.93020210716680e-01
0.30000000 3.89475111887617e-01
0.30100000 3.85941350301889e-01
0.30200000 3.82419792751389e-01
0.30300000 3.78911273473253e-01
0.30400000 3.75416633535772e-01
0.30500000 3.71936736664096e-01
0.30600000 3.68472433423820e-01
0.30700000 3.65024536295140e-01
0.30800000 3.61593849026440e-01
0.30900000 3.58181198415650e-01
0.31000000 3.54787412456702e-01
0.31100000 3.51413282918630e-01
0.31200000 3.48059577698213e-01
0.31300000 3.44727080928516e-01
0.31400000 3.41416590174268e-01
0.31500000 3.38128875388909e-01
0.31600000 3.34864671369025e-01
0.31700000 3.31624716615457e-01
0.31800000 3.28409770117697e-01
0.31900000 3.25220576385794e-01
0.32000000 3.22057839851764e-01
0.32100000 3.18922253253489e-01
0.32200000 3.15814529897544e-01
0.32300000 3.12735382973770e-01
0.32400000 3.09685488025825e-01
0.32500000 3.06665494166985e-01
0.32600000 3.03676064065270e-01
0.32700000 3.00717872316979e-01
0.32800000 2.97791564904227e-01
0.32900000 2.94897750664379e-01
0.33000000 2.92037039461579e-01
0.33100000 2.89210059852514e-01
0.33200000 2.86417425109113e-01
0.33300000 2.83659707060078e-01
0.33400000 2.80937463407458e-01
0.33500000 2.78251270351259e-01
0.33600000 2.75601703140381e-01
0.33700000 2.72989298566189e-01
0.33800000 2.70414565016079e-01
0.33900000 2.67878022216376e-01
0.34000000 2.65380200785446e-01
0.34100000 2.62921602303690e-01
0.34200000 2.60502689826877e-01
0.34300000 2.58123925280651e-01
0.34400000 2.55785787967941e-01
0.34500000 2.53488741653992e-01
0.34600000 2.51233207901196e-01
0.34700000 2.49019592272438e-01
0.34800000 2.46848317267534e-01
0.34900000 2.44719804141961e-01
0.35000000 2.42634435472314e-01
0.35100000 2.40592564033817e-01
0.35200000 2.38594552264124e-01
0.35300000 2.36640773003951e-01
0.35400000 2.34731570208127e-01
0.35500000 2.32867248499975e-01
0.35600000 2.31048109772476e-01
0.35700000 2.29274472544261e-01
0.35800000 2.27546640116761e-01
0.35900000 2.25864873389517e-01
0.36000000 2.24229415945003e-01
0.36100000 2.22640527319533e-01
0.36200000 2.21098466096615e-01
0.36300000 2.19603452511452e-01
0.36400000 2.18155676138112e-01
0.36500000 2.16755335114692e-01
0.36600000 2.15402638096767e-01
0.36700000 2.14097765562964e-01
0.36800000 2.12840858367359e-01
0.36900000 2.11632053591228e-01
0.37000000 2.10471504806760e-01
0.37100000 2.09359351267111e-01
0.37200000 2.08295690121919e-01
0.37300000 2.07280600405499e-01
0.37400000 2.06314176735182e-01
0.37500000 2.05396513674699e-01
0.37600000 2.04527668269665e-01
0.37700000 2.03707666518335e-01
0.37800000 2.02936542466147e-01
0.37900000 2.02214341423602e-01
0.38000000 2.01541081757532e-01
0.38100000 2.00916742353185e-01
0.38200000 2.00341297806396e-01
0.38300000 1.99814739707662e-01
0.38400000 1.99337046792277e-01
0.38500000 1.98908156411673e-01
0.38600000 1.98527987459687e-01
0.38700000 1.98196474654307e-01
0.38800000 1.97913554168091e-01
0.38900000 1.97679125922771e-01
0.39000000 1.97493058796095e-01
0.39100000 1.97355229747288e-01
0.39200000 1.97265528383499e-01
0.39300000 1.97223819082078e-01
0.39400000 1.97229927227402e-01
0.39500000 1.97283673862495e-01
0.39600000 1.97384898156624e-01
0.39700000 1.97533428425729e-01
0.39800000 1.97729052659126e-01
0.39900000 1.97971540417092e-01
0.40000000 1.98260677903380e-01
0.40100000 1.98596254872874e-01
0.40200000 1.98978026465194e-01
0.40300000 1.99405717071617e-01
0.40400000 1.99879059689241e-01
0.40500000 2.00397801955588e-01
0.40600000 2.00961668420105e-01
0.40700000 2.01570345376803e-01
0.40800000 2.02223515105777e-01
0.40900000 2.02920879730974e-01
0.41000000 2.03662133020675e-01
0.41100000 2.04446929725158e-01
0.41200000 2.05274906464509e-01
0.41300000 2.06145717835361e-01
0.41400000 2.07059024628592e-01
0.41500000 2.08014454952044e-01
0.41600000 2.09011606649033e-01
0.41700000 2.10050087096091e-01
0.41800000 2.11129520860094e-01
0.41900000 2.12249511929768e-01
0.42000000 2.13409626927770e-01
0.42100000 2.14609429066456e-01
0.42200000 2.15848503635264e-01
0.42300000 2.17126430505787e-01
0.42400000 2.18442752007527e-01
0.42500000 2.19796992799841e-01
0.42600000 2.21188697274667e-01
0.42700000 2.22617419146156e-01
0.42800000 2.24082681602961e-01
0.42900000 2.25583978136879e-01
0.43000000 2.27120812996397e-01
0.43100000 2.28692710651250e-01
0.43200000 2.30299177806519e-01
0.43300000 2.31939684750285e-01
0.43400000 2.33613699125909e-01
0.43500000 2.35320713307577e-01
0.43600000 2.37060217562263e-01
0.43700000 2.38831666179859e-01
0.43800000 2.40634496290606e-01
0.43900000 2.42468166824784e-01
0.44000000 2.44332149568276e-01
0.44100000 2.46225888095729e-01
0.44200000 2.48148796837896e-01
0.44300000 2.50100302381519e-01
0.44400000 2.52079854949319e-01
0.44500000 2.54086890048590e-01
0.44600000 2.56120807695754e-01
0.44700000 2.58181006071894e-01
0.44800000 2.60266911048478e-01
0.44900000 2.62377949996001e-01
0.45000000 2.64513515892714e-01
0.45100000 2.66672985012222e-01
0.45200000 2.68855757681167e-01
0.45300000 2.71061250926403e-01
0.45400000 2.73288855970576e-01
0.45500000 2.75537935343014e-01
0.45600000 2.77807865177793e-01
0.45700000 2.80098048930064e-01
0.45800000 2.82407878555038e-01
0.45900000 2.84736711350583e-01
0.46000000 2.87083903517175e-01
0.46100000 2.89448842082693e-01
0.46200000 2.91830919391070e-01
0.46300000 2.94229494940377e-01
0.46400000 2.96643911828148e-01
0.46500000 2.99073539510260e-01
0.46600000 3.01517768193187e-01
0.46700000 3.03975964720987e-01
0.46800000 3.06447467519861e-01
0.46900000 3.08931629993606e-01
0.47000000 3.11427836697908e-01
0.47100000 3.13935464000680e-01
0.47200000 3.16453854299118e-01
0.47300000 3.18982349453493e-01
0.47400000 3.21520325330414e-01
0.47500000 3.24067167050469e-01
0.47600000 3.26622228350127e-01
0.47700000 3.29184846638422e-01
0.47800000 3.31754387906791e-01
0.47900000 3.34330243040807e-01
0.48000000 3.36911781988963e-01
0.48100000 3.39498346327332e-01
0.48200000 3.42089293788746e-01
0.48300000 3.44684017104324e-01
0.48400000 3.47281904157952e-01
0.48500000 3.49882309364783e-01
0.48600000 3.52484586894566e-01
0.48700000 3.55088128008161e-01
0.48800000 3.57692337187019e-01
0.48900000 3.60296588871861e-01
0.49000000 3.62900240956683e-01
0.49100000 3.65502681933615e-01
0.49200000 3.68103329310294e-01
0.49300000 3.70701582022046e-01
0.49400000 3.73296810411651e-01
0.49500000 3.75888401859918e-01
0.49600000 3.78475782478053e-01
0.49700000 3.81058376833309e-01
0.49800000 3.83635576320524e-01
0.49900000 3.86206772038996e-01
0.50000000 3.88771395039623e-01
0.50100000 3.91328893497626e-01
0.50200000 3.93878686750841e-01
0.50300000 3.96420177038226e-01
0.50400000 3.98952798889811e-01
0.50500000 4.01476019836825e-01
0.50600000 4.03989291105532e-01
0.50700000 4.06492034828080e-01
0.50800000 4.08983690672161e-01
0.50900000 4.11463740529861e-01
0.51000000 4.13931667953725e-01
0.51100000 4.16386923409357e-01
0.51200000 4.18828956623971e-01
0.51300000 4.21257259794413e-01
0.51400000 4.23671345994776e-01
0.51500000 4.26070700514468e-01
0.51600000 4.28454790640208e-01
0.51700000 4.30823117223274e-01
0.51800000 4.33175217859057e-01
0.51900000 4.35510615978082e-01
0.52000000 4.37828805136699e-01
0.52100000 4.40129296476609e-01
0.52200000 4.42411646507351e-01
0.52300000 4.44675416448208e-01
0.52400000 4.46920134315257e-01
0.52500000 4.49145326522631e-01
0.52600000 4.51350564028611e-01
0.52700000 4.53535442189623e-01
0.52800000 4.55699529478502e-01
0.52900000 4.57842375112348e-01
0.53000000 4.59963562652005e-01
0.53100000 4.62062715806115e-01
0.53200000 4.64139446108299e-01
0.53300000 4.66193334179395e-01
0.53400000 4.68223977787792e-01
0.53500000 4.70231022766228e-01
0.53600000 4.72214122501834e-01
0.53700000 4.74172896881615e-01
0.53800000 4.76106962901580e-01
0.53900000 4.78015983653065e-01
0.54000000 4.79899649842733e-01
0.54100000 4.81757626050263e-01
0.54200000 4.83589556019239e-01
0.54300000 4.85395118071527e-01
0.54400000 4.87174033659254e-01
0.54500000 4.88926013882620e-01
0.54600000 4.90650737666188e-01
0.54700000 4.92347900141514e-01
0.54800000 4.94017246677646e-01
0.54900000 4.95658532796485e-01
0.55000000 4.97271480072779e-01
0.55100000 4.98855805492849e-01
0.55200000 5.00411273110515e-01
0.55300000 5.01937677448815e-01
0.55400000 5.03434787529419e-01
0.55500000 5.04902349669037e-01
0.55600000 5.06340144427941e-01
0.55700000 5.07747997993505e-01
0.55800000 5.09125727847286e-01
0.55900000 5.10473117853598e-01
0.56000000 5.11789966649383e-01
0.56100000 5.13076124705081e-01
0.56200000 5.14331454963904e-01
0.56300000 5.15555785861987e-01
0.56400000 5.16748939177928e-01
0.56500000 5.17910784121037e-01
0.56600000 5.19041222815134e-01
0.56700000 5.20140132395539e-01
0.56800000 5.21207365187583e-01
0.56900000 5.22242806857146e-01
0.57000000 5.23246390663958e-01
0.57100000 5.24218042626862e-01
0.57200000 5.25157653580366e-01
0.57300000 5.26065127234503e-01
0.57400000 5.26940420122220e-01
0.57500000 5.27783503268474e-01
0.57600000 5.28594312559468e-01
0.57700000 5.29372774836121e-01
0.57800000 5.30118864120255e-01
0.57900000 5.30832589355504e-01
0.58000000 5.31513934918631e-01
0.58100000 5.32162858097321e-01
0.58200000 5.32779348073494e-01
0.58300000 5.33363443036448e-01
0.58400000 5.33915175220076e-01
0.58500000 5.34434540038855e-01
0.58600000 5.34921543473162e-01
0.58700000 5.35376244704347e-01
0.58800000 5.35798719113166e-01
0.58900000 5.36189006280817e-01
0.59000000 5.36547134102245e-01
0.59100000 5.36873176811208e-01
0.59200000 5.37167245120101e-01
0.59300000 5.37429425528422e-01
0.59400000 5.37659775061232e-01
0.59500000 5.37858380694655e-01
0.59600000 5.38025379271070e-01
0.59700000 5.38160902791031e-01
0.59800000 5.38265044791048e-01
0.59900000 5.38337906716899e-01
0.60000000 5.38379643001140e-01
0.60100000 5.38390425671600e-01
0.60200000 5.38370390308500e-01
0.60300000 5.38319657985193e-01
0.60400000 5.38238394722688e-01
0.60500000 5.38126804131660e-01
0.60600000 5.37985065920923e-01
0.60700000 5.37813327902824e-01
0.60800000 5.37611765464924e-01
0.60900000 5.37380604184975e-01
0.61000000 5.37120065753857e-01
0.61100000 5.36830331800605e-01
0.61200000 5.36511588936374e-01
0.61300000 5.36164075993616e-01
0.61400000 5.35788050496297e-01
0.61500000 5.35383732924906e-01
0.61600000 5.34951326330146e-01
0.61700000 5.34491076832493e-01
0.61800000 5.34003268828769e-01
0.61900000 5.33488163107163e-01
0.62000000 5.32945986168467e-01
0.62100000 5.32376989357799e-01
0.62200000 5.31781474038679e-01
