#"time"      "expected energy level"
0.00000000 0.00000000000000e+00
0.10000000 1.65520123476584e-05
0.20000000 6.40058938018912e-05
0.30000000 1.39330214368324e-04
0.40000000 2.40043960860389e-04
0.50000000 3.64444472626810e-04
0.60000000 5.11822523679684e-04
0.70000000 6.82662643086601e-04
0.80000000 8.78576429865418e-04
0.90000000 1.10141969378375e-03
1.00000000 1.35305807902986e-03
1.10000000 1.63507077615480e-03
1.20000000 1.94847213246507e-03
1.30000000 2.29347317463529e-03
1.40000000 2.66928914832658e-03
1.50000000 3.07404672850035e-03
1.60000000 3.50513677215869e-03
1.70000000 3.95947723940675e-03
1.80000000 4.43369725141204e-03
1.90000000 4.92436237972368e-03
2.00000000 5.42823113715212e-03
2.10000000 5.94255437510836e-03
2.20000000 6.46597201331549e-03
2.30000000 6.99838810441362e-03
2.40000000 7.54074175418587e-03
2.50000000 8.09506820543741e-03
2.60000000 8.66461036968977e-03
2.70000000 9.25397220781501e-03
2.80000000 9.86894344429591e-03
2.90000000 1.05135894521774e-02
3.00000000 1.11902884769365e-02
3.10000000 1.18997256459527e-02
3.20000000 1.26406294331736e-02
3.30000000 1.34095687945863e-02
3.40000000 1.42008303970554e-02
3.50000000 1.50075993579634e-02
3.60000000 1.58258087554766e-02
3.70000000 1.66530660050263e-02
3.80000000 1.74889080295329e-02
3.90000000 1.83351559399574e-02
4.00000000 1.91962105443827e-02
4.10000000 2.00792750485632e-02
4.20000000 2.09939456640429e-02
4.30000000 2.19489006813792e-02
4.40000000 2.29503033018380e-02
4.50000000 2.40013639489268e-02
4.60000000 2.51019977361806e-02
4.70000000 2.62485880371640e-02
4.80000000 2.74337102937959e-02
4.90000000 2.86422545409814e-02
5.00000000 2.98571065514058e-02
5.10000000 3.10628366183315e-02
5.20000000 3.22465979006070e-02
5.30000000 3.33990245438481e-02
5.40000000 3.45151018579888e-02
5.50000000 3.55965208544953e-02
5.60000000 3.66598285440032e-02
5.70000000 3.77225280471334e-02
5.80000000 3.87994246255073e-02
5.90000000 3.99018415191309e-02
6.00000000 4.10369950801763e-02
6.10000000 4.22075437460184e-02
6.20000000 4.34134022211086e-02
6.30000000 4.46586985055016e-02
6.40000000 4.59491383300238e-02
6.50000000 4.72917774256746e-02
6.60000000 4.86951104024473e-02
6.70000000 5.01691476885161e-02
6.80000000 5.17254702842334e-02
6.90000000 5.33602718987543e-02
7.00000000 5.50478362615902e-02
7.10000000 5.67617223232489e-02
7.20000000 5.84755016717009e-02
7.30000000 6.01635558745858e-02
7.40000000 6.18020116148353e-02
7.50000000 6.33701913070663e-02
7.60000000 6.48661582605915e-02
7.70000000 6.62952278966819e-02
7.80000000 6.76602365325420e-02
7.90000000 6.89611963688459e-02
8.00000000 7.01951621539124e-02
8.10000000 7.13562924620748e-02
8.20000000 7.24384656097996e-02
8.30000000 7.34544770167355e-02
8.40000000 7.44225022194665e-02
8.50000000 7.53611689689148e-02
8.60000000 7.62889428002156e-02
8.70000000 7.72235224123795e-02
8.80000000 7.81812489372106e-02
8.90000000 7.91743219078210e-02
9.00000000 8.02075054961945e-02
9.10000000 8.12872602779102e-02
9.20000000 8.24224592476853e-02
9.30000000 8.36244293434267e-02
9.40000000 8.49069691283532e-02
9.50000000 8.62863329550616e-02
9.60000000 8.77712774508210e-02
9.70000000 8.93551516591873e-02
9.80000000 9.10276093286132e-02
9.90000000 9.27748285979668e-02
10.00000000 9.45797137917091e-02
10.10000000 9.64221839853724e-02
10.20000000 9.82797904465419e-02
10.30000000 1.00141752991294e-01
10.40000000 1.02004628166620e-01
10.50000000 1.03864761914732e-01
10.60000000 1.05718281441045e-01
10.70000000 1.07561091725776e-01
10.80000000 1.09388877172548e-01
10.90000000 1.11196424679382e-01
11.00000000 1.12973907530563e-01
11.10000000 1.14716074319361e-01
11.20000000 1.16424684713966e-01
11.30000000 1.18108771842643e-01
11.40000000 1.19784730418674e-01
11.50000000 1.21476236795237e-01
11.60000000 1.23211412204677e-01
11.70000000 1.25009632058077e-01
11.80000000 1.26882670863865e-01
11.90000000 1.28835143730462e-01
12.00000000 1.30864502400501e-01
12.10000000 1.32961137140888e-01
12.20000000 1.35108588508510e-01
12.30000000 1.37289318861704e-01
12.40000000 1.39495323137330e-01
12.50000000 1.41725012662978e-01
12.60000000 1.43983456486671e-01
12.70000000 1.46282586945091e-01
12.80000000 1.48641285311590e-01
12.90000000 1.51085217998107e-01
13.00000000 1.53633804377973e-01
13.10000000 1.56294517101501e-01
13.20000000 1.59067417192710e-01
13.30000000 1.61945203831873e-01
13.40000000 1.64913421130552e-01
13.50000000 1.67950829262500e-01
13.60000000 1.71029821599874e-01
13.70000000 1.74119007958040e-01
13.80000000 1.77191336964147e-01
13.90000000 1.80226105263405e-01
14.00000000 1.83209806715876e-01
14.10000000 1.86136828209957e-01
14.20000000 1.89009966499152e-01
14.30000000 1.91843877339900e-01
14.40000000 1.94667701234393e-01
14.50000000 1.97504829279304e-01
14.60000000 2.00370579114222e-01
14.70000000 2.03271780723982e-01
14.80000000 2.06206586159691e-01
14.90000000 2.09164504933254e-01
15.00000000 2.12129636548221e-01
15.10000000 2.15088944826030e-01
15.20000000 2.18031694267805e-01
15.30000000 2.20949560364768e-01
15.40000000 2.23836785824895e-01
15.50000000 2.26690322399118e-01
15.60000000 2.29509848200788e-01
15.70000000 2.32285168400801e-01
15.80000000 2.35002795504937e-01
15.90000000 2.37656255978264e-01
16.00000000 2.40246364474851e-01
16.10000000 2.42781363737000e-01
16.20000000 2.45276949429882e-01
16.30000000 2.47756289615097e-01
16.40000000 2.50246315302811e-01
16.50000000 2.52766991493567e-01
16.60000000 2.55329738636875e-01
16.70000000 2.57937481433671e-01
16.80000000 2.60584825111498e-01
16.90000000 2.63258351999014e-01
17.00000000 2.65937773973530e-01
17.10000000 2.68602965166698e-01
17.20000000 2.71236945161273e-01
17.30000000 2.73826323686669e-01
17.40000000 2.76361840859496e-01
17.50000000 2.78838880366801e-01
17.60000000 2.81257938003884e-01
17.70000000 2.83619667017700e-01
17.80000000 2.85914801804864e-01
17.90000000 2.88129928190185e-01
18.00000000 2.90248063444150e-01
18.10000000 2.92249179789922e-01
18.20000000 2.94110852518371e-01
18.30000000 2.95809153021849e-01
18.40000000 2.97352073986617e-01
18.50000000 2.98771738024344e-01
18.60000000 3.00098186011587e-01
18.70000000 3.01358532926403e-01
18.80000000 3.02576175481565e-01
18.90000000 3.03770063983389e-01
19.00000000 3.04954012043218e-01
19.10000000 3.06137410798717e-01
19.20000000 3.07329296706600e-01
19.30000000 3.08538768100618e-01
19.40000000 3.09774672420705e-01
19.50000000 3.11045265872845e-01
19.60000000 3.12357845648556e-01
19.70000000 3.13718760702729e-01
19.80000000 3.15136973768259e-01
19.90000000 3.16625449446949e-01
20.00000000 3.18200953445720e-01
20.10000000 3.19883827315633e-01
20.20000000 3.21697643101255e-01
20.30000000 3.23668725645106e-01
20.40000000 3.25814279215639e-01
20.50000000 3.28126699560463e-01
20.60000000 3.30593694697707e-01
20.70000000 3.33199086756693e-01
20.80000000 3.35923018400909e-01
20.90000000 3.38742256249083e-01
21.00000000 3.41630570526530e-01
21.10000000 3.44548594416742e-01
21.20000000 3.47457265041195e-01
21.30000000 3.50333041513953e-01
21.40000000 3.53168868034868e-01
21.50000000 3.55974719133883e-01
21.60000000 3.58777697984606e-01
21.70000000 3.61621162199052e-01
21.80000000 3.64546895407017e-01
21.90000000 3.67580291183875e-01
22.00000000 3.70731106060806e-01
22.10000000 3.73994016062189e-01
22.20000000 3.77349536818573e-01
22.30000000 3.80765284567667e-01
22.40000000 3.84200083345962e-01
22.50000000 3.87624021629002e-01
22.60000000 3.91018705116371e-01
22.70000000 3.94376645393133e-01
22.80000000 3.97701653748936e-01
22.90000000 4.01008876640350e-01
23.00000000 4.04324464159693e-01
23.10000000 4.07680148096143e-01
23.20000000 4.11095387071761e-01
23.30000000 4.14577651425112e-01
23.40000000 4.18122881253955e-01
23.50000000 4.21716068935607e-01
23.60000000 4.25332182238200e-01
23.70000000 4.28937401646119e-01
23.80000000 4.32508842585970e-01
23.90000000 4.36039158159012e-01
24.00000000 4.39521615662816e-01
24.10000000 4.42950179351368e-01
24.20000000 4.46319580075820e-01
24.30000000 4.49625367330853e-01
24.40000000 4.52862996862124e-01
24.50000000 4.56012025130322e-01
24.60000000 4.59055252483906e-01
24.70000000 4.61987333581739e-01
24.80000000 4.64814115414455e-01
24.90000000 4.67551689992030e-01
25.00000000 4.70225213135346e-01
25.10000000 4.72865819997566e-01
25.20000000 4.75494238698781e-01
25.30000000 4.78119460777963e-01
25.40000000 4.80740858648587e-01
25.50000000 4.83349479109494e-01
25.60000000 4.85929433742343e-01
25.70000000 4.88459330265254e-01
25.80000000 4.90917568213967e-01
25.90000000 4.93291384710022e-01
26.00000000 4.95570008093006e-01
26.10000000 4.97744374046460e-01
26.20000000 4.99807186893136e-01
26.30000000 5.01752917158579e-01
26.40000000 5.03577745451180e-01
26.50000000 5.05279135529695e-01
26.60000000 5.06856656076214e-01
26.70000000 5.08312565402364e-01
26.80000000 5.09651518154798e-01
26.90000000 5.10880310522387e-01
27.00000000 5.12007681535482e-01
27.10000000 5.13044133672377e-01
27.20000000 5.14000247824212e-01
27.30000000 5.14886573101544e-01
27.40000000 5.15714359564312e-01
27.50000000 5.16495748443808e-01
27.60000000 5.17243801578731e-01
27.70000000 5.17972370011285e-01
27.80000000 5.18695417805708e-01
27.90000000 5.19423233528705e-01
28.00000000 5.20162719081476e-01
28.10000000 5.20918178570569e-01
28.20000000 5.21691749186238e-01
28.30000000 5.22483775174599e-01
28.40000000 5.23293112252179e-01
28.50000000 5.24123713385064e-01
28.60000000 5.24995251547880e-01
28.70000000 5.25925809137632e-01
28.80000000 5.26930395960174e-01
28.90000000 5.28020522608305e-01
29.00000000 5.29203820262932e-01
29.10000000 5.30483708771014e-01
29.20000000 5.31854125781604e-01
29.30000000 5.33301912635711e-01
29.40000000 5.34814905008622e-01
29.50000000 5.36382443576242e-01
29.60000000 5.37995854152397e-01
29.70000000 5.39648880748735e-01
29.80000000 5.41338322749848e-01
29.90000000 5.43073602180247e-01
30.00000000 5.44873855718561e-01
30.10000000 5.46763619008493e-01
30.20000000 5.48772248859985e-01
30.30000000 5.50933061289382e-01
30.40000000 5.53282192872764e-01
30.50000000 5.55849171880721e-01
30.60000000 5.58601217581223e-01
30.70000000 5.61487932515275e-01
30.80000000 5.64454772418536e-01
30.90000000 5.67444655176366e-01
31.00000000 5.70399741658848e-01
31.10000000 5.73263343154381e-01
31.20000000 5.75995222460500e-01
31.30000000 5.78601086027366e-01
31.40000000 5.81097353441545e-01
31.50000000 5.83509089022119e-01
31.60000000 5.85870215649808e-01
31.70000000 5.88223287880232e-01
31.80000000 5.90618793372570e-01
31.90000000 5.93097036128282e-01
32.00000000 5.95671209175536e-01
32.10000000 5.98342462381612e-01
32.20000000 6.01100337050036e-01
32.30000000 6.03923580388808e-01
32.40000000 6.06781393028089e-01
32.50000000 6.09635447312398e-01
32.60000000 6.12458083453673e-01
32.70000000 6.15228801699685e-01
32.80000000 6.17926938502185e-01
32.90000000 6.20532123704199e-01
33.00000000 6.23024741910672e-01
33.10000000 6.25386385314284e-01
33.20000000 6.27601442485925e-01
33.30000000 6.29669903306767e-01
33.40000000 6.31606292595440e-01
33.50000000 6.33436678776844e-01
33.60000000 6.35196746256435e-01
33.70000000 6.36929460425061e-01
33.80000000 6.38682417011617e-01
33.90000000 6.40490489846102e-01
34.00000000 6.42336393879068e-01
34.10000000 6.44191333948228e-01
34.20000000 6.46021001825511e-01
34.30000000 6.47788066316694e-01
34.40000000 6.49454643206891e-01
34.50000000 6.50984645881505e-01
34.60000000 6.52358863187316e-01
34.70000000 6.53580017956601e-01
34.80000000 6.54653576362187e-01
34.90000000 6.55587742578452e-01
35.00000000 6.56393448256881e-01
35.10000000 6.57084192385641e-01
35.20000000 6.57675775795131e-01
35.30000000 6.58188017653001e-01
35.40000000 6.58643256264581e-01
35.50000000 6.59063962394068e-01
35.60000000 6.59471573485560e-01
35.70000000 6.59885441924943e-01
35.80000000 6.60321935740086e-01
35.90000000 6.60791637552867e-01
36.00000000 6.61281708425390e-01
36.10000000 6.61773169271473e-01
36.20000000 6.62247636139676e-01
36.30000000 6.62688673152299e-01
36.40000000 6.63082841127870e-01
36.50000000 6.63420414247328e-01
36.60000000 6.63695967485617e-01
36.70000000 6.63907703710413e-01
36.80000000 6.64055302423470e-01
36.90000000 6.64140019744454e-01
37.00000000 6.64164890967101e-01
37.10000000 6.64134883721474e-01
37.20000000 6.64056992915157e-01
37.30000000 6.63944186234345e-01
37.40000000 6.63814887256506e-01
37.50000000 6.63685051662491e-01
37.60000000 6.63568127153828e-01
37.70000000 6.63475026065654e-01
37.80000000 6.63414021096168e-01
37.90000000 6.63390572271245e-01
38.00000000 6.63407801055923e-01
38.10000000 6.63466873779680e-01
38.20000000 6.63567775126801e-01
38.30000000 6.63710585672858e-01
38.40000000 6.63896786305452e-01
38.50000000 6.64130498590691e-01
38.60000000 6.64419328517751e-01
38.70000000 6.64771342652504e-01
38.80000000 6.65193916813876e-01
38.90000000 6.65693258406315e-01
39.00000000 6.66273561581752e-01
39.10000000 6.66936297763354e-01
39.20000000 6.67679681286825e-01
39.30000000 6.68498897004420e-01
39.40000000 6.69388652976137e-01
39.50000000 6.70342547663304e-01
39.60000000 6.71353131474007e-01
39.70000000 6.72412189639465e-01
39.80000000 6.73511056775562e-01
39.90000000 6.74640947099676e-01
40.00000000 6.75792004100652e-01
40.10000000 6.76955237607471e-01
40.20000000 6.78127351244856e-01
40.30000000 6.79311441868637e-01
40.40000000 6.80517251509006e-01
40.50000000 6.81760987780232e-01
40.60000000 6.83064519103488e-01
40.70000000 6.84429414645338e-01
40.80000000 6.85834589698908e-01
40.90000000 6.87250596602514e-01
41.00000000 6.88640318746598e-01
41.10000000 6.89960024740372e-01
41.20000000 6.91160750213663e-01
41.30000000 6.92193006576374e-01
41.40000000 6.93044691164543e-01
41.50000000 6.93716406332565e-01
41.60000000 6.94210366364806e-01
41.70000000 6.94530844782752e-01
41.80000000 6.94684605328810e-01
41.90000000 6.94681293789986e-01
42.00000000 6.94534261417028e-01
42.10000000 6.94264357244550e-01
42.20000000 6.93899723345963e-01
42.30000000 6.93473897869096e-01
42.40000000 6.93023702717366e-01
42.50000000 6.92586894917189e-01
42.60000000 6.92199670946136e-01
42.70000000 6.91879707902985e-01
42.80000000 6.91612647058144e-01
42.90000000 6.91380545726131e-01
43.00000000 6.91164161202425e-01
43.10000000 6.90944582067119e-01
43.20000000 6.90704803555394e-01
43.30000000 6.90431151907747e-01
43.40000000 6.90106057403130e-01
43.50000000 6.89708983063970e-01
43.60000000 6.89222917988057e-01
43.70000000 6.88634901943796e-01
43.80000000 6.87936335815870e-01
43.90000000 6.87123072389611e-01
44.00000000 6.86196937523509e-01
44.10000000 6.85187479002094e-01
44.20000000 6.84133448937428e-01
44.30000000 6.83073218845890e-01
44.40000000 6.82043452317452e-01
44.50000000 6.81077829093187e-01
44.60000000 6.80205862068885e-01
44.70000000 6.79444727610894e-01
44.80000000 6.78772995051687e-01
44.90000000 6.78164297558605e-01
45.00000000 6.77593827791015e-01
45.10000000 6.77039920399048e-01
45.20000000 6.76485411808117e-01
45.30000000 6.75918733484068e-01
45.40000000 6.75333803426252e-01
45.50000000 6.74726407105429e-01
45.60000000 6.74093730511105e-01
45.70000000 6.73434684225865e-01
45.80000000 6.72750098362221e-01
45.90000000 6.72042800796432e-01
46.00000000 6.71317599459415e-01
46.10000000 6.70592688039965e-01
46.20000000 6.69890227157970e-01
46.30000000 6.69223007966830e-01
46.40000000 6.68594647631604e-01
46.50000000 6.68000106968464e-01
46.60000000 6.67426490496069e-01
46.70000000 6.66853898545991e-01
46.80000000 6.66256695456875e-01
46.90000000 6.65613473414563e-01
47.00000000 6.64909379704383e-01
47.10000000 6.64136052438743e-01
47.20000000 6.63291319511344e-01
47.30000000 6.62378690438698e-01
47.40000000 6.61406732949026e-01
47.50000000 6.60386027482374e-01
47.60000000 6.59324857586957e-01
47.70000000 6.58229001092115e-01
47.80000000 6.57101907706706e-01
47.90000000 6.55944940745419e-01
48.00000000 6.54757656190231e-01
48.10000000 6.53539396546700e-01
48.20000000 6.52291786680589e-01
48.30000000 6.51016337544630e-01
48.40000000 6.49714199059974e-01
48.50000000 6.48386078737328e-01
48.60000000 6.47032221716375e-01
48.70000000 6.45652450341679e-01
48.80000000 6.44250502145921e-01
48.90000000 6.42833660864925e-01
49.00000000 6.41408950354017e-01
49.10000000 6.39983398507412e-01
49.20000000 6.38564106041575e-01
49.30000000 6.37158093009083e-01
49.40000000 6.35771435475940e-01
49.50000000 6.34399509266583e-01
49.60000000 6.33033298660421e-01
49.70000000 6.31663538668587e-01
49.80000000 6.30281015214493e-01
49.90000000 6.28877064064409e-01
50.00000000 6.27444248182594e-01
50.10000000 6.25977217623494e-01
50.20000000 6.24472814595392e-01
50.30000000 6.22928852358465e-01
50.40000000 6.21344186522844e-01
50.50000000 6.19718920823768e-01
50.60000000 6.18054598684164e-01
50.70000000 6.16354372786405e-01
50.80000000 6.14626145426435e-01
50.90000000 6.12884472385614e-01
51.00000000 6.11140050821367e-01
51.10000000 6.09397895707425e-01
51.20000000 6.07655861455224e-01
51.30000000 6.05903158039181e-01
51.40000000 6.04118920297181e-01
51.50000000 6.02275633739985e-01
51.60000000 6.00349823822100e-01
51.70000000 5.98323743531461e-01
51.80000000 5.96186592179566e-01
51.90000000 5.93935648371505e-01
52.00000000 5.91577267175694e-01
52.10000000 5.89127378566214e-01
52.20000000 5.86602778950241e-01
52.30000000 5.84021776027061e-01
52.40000000 5.81406916572976e-01
52.50000000 5.78784646041884e-01
52.60000000 5.76184815881918e-01
52.70000000 5.73640048822185e-01
52.80000000 5.71184435058103e-01
52.90000000 5.68847660093177e-01
53.00000000 5.66653735682599e-01
53.10000000 5.64620194634327e-01
53.20000000 5.62756934378676e-01
53.30000000 5.61065180701204e-01
53.40000000 5.59536601843288e-01
53.50000000 5.58145862664626e-01
53.60000000 5.56846725082512e-01
53.70000000 5.55598909756229e-01
53.80000000 5.54371126935380e-01
53.90000000 5.53142570346795e-01
54.00000000 5.51904099297184e-01
54.10000000 5.50659072953210e-01
54.20000000 5.49415192657731e-01
54.30000000 5.48175290565415e-01
54.40000000 5.46943221924379e-01
54.50000000 5.45724167336468e-01
54.60000000 5.44524869290440e-01
54.70000000 5.43353803462839e-01
54.80000000 5.42221518670661e-01
54.90000000 5.41145466282267e-01
55.00000000 5.40138263383414e-01
55.10000000 5.39202598897427e-01
55.20000000 5.38331414722378e-01
55.30000000 5.37508382503577e-01
55.40000000 5.36708649757909e-01
55.50000000 5.35900501990696e-01
55.60000000 5.35054632697114e-01
55.70000000 5.34147294743043e-01
55.80000000 5.33160266426614e-01
55.90000000 5.32081132735700e-01
56.00000000 5.30903387814760e-01
56.10000000 5.29626369621904e-01
56.20000000 5.28257488072430e-01
56.30000000 5.26812536515323e-01
56.40000000 5.25303962763378e-01
56.50000000 5.23740048114969e-01
56.60000000 5.22124872581027e-01
56.70000000 5.20458408780717e-01
56.80000000 5.18736724816617e-01
56.90000000 5.16958552167062e-01
57.00000000 5.15129373688414e-01
57.10000000 5.13254283478112e-01
57.20000000 5.11337603017607e-01
57.30000000 5.09382588557038e-01
57.40000000 5.07391197695881e-01
57.50000000 5.05363846232987e-01
57.60000000 5.03296721270115e-01
57.70000000 5.01183267342831e-01
57.80000000 4.99015690401936e-01
57.90000000 4.96785005202691e-01
58.00000000 4.94481085309277e-01
58.10000000 4.92092710656061e-01
58.20000000 4.89607875758966e-01
58.30000000 4.87017504024564e-01
58.40000000 4.84316700237854e-01
58.50000000 4.81504373917855e-01
58.60000000 4.78583089193599e-01
58.70000000 4.75558918835547e-01
58.80000000 4.72441302942274e-01
58.90000000 4.69245013968251e-01
59.00000000 4.65992828405920e-01
59.10000000 4.62706604512970e-01
59.20000000 4.59406347739962e-01
59.30000000 4.56109879371838e-01
59.40000000 4.52832473766447e-01
59.50000000 4.49586464989537e-01
59.60000000 4.46374255462140e-01
59.70000000 4.43187273312618e-01
59.80000000 4.40016640716163e-01
59.90000000 4.36853319929325e-01
60.00000000 4.33688206465980e-01
60.10000000 4.30512245771119e-01
60.20000000 4.27316581508806e-01
60.30000000 4.24094036161140e-01
60.40000000 4.20841432336411e-01
60.50000000 4.17559956325596e-01
60.60000000 4.14255353688158e-01
