#"time"      "expected energy level"
0.00000000 1.00000000000000e+00
0.10000000 9.99987127954684e-01
0.20000000 9.99947386451227e-01
0.30000000 9.99879188905177e-01
0.40000000 9.99781507740281e-01
0.50000000 9.99654225803463e-01
0.60000000 9.99498272286487e-01
0.70000000 9.99315553560349e-01
0.80000000 9.99107829030311e-01
0.90000000 9.98874588665226e-01
1.00000000 9.98614470846909e-01
1.10000000 9.98325508684790e-01
1.20000000 9.98005331405557e-01
1.30000000 9.97651391575886e-01
1.40000000 9.97261207605282e-01
1.50000000 9.96834843114493e-01
1.60000000 9.96375655909085e-01
1.70000000 9.95887984027102e-01
1.80000000 9.95376612771086e-01
1.90000000 9.94846146984610e-01
2.00000000 9.94300327018622e-01
2.10000000 9.93741071600548e-01
2.20000000 9.93162329257651e-01
2.30000000 9.92554706344678e-01
2.40000000 9.91908949588737e-01
2.50000000 9.91216652395953e-01
2.60000000 9.90470985738758e-01
2.70000000 9.89667464279430e-01
2.80000000 9.88805058021782e-01
2.90000000 9.87887764285906e-01
3.00000000 9.86921517940650e-01
3.10000000 9.85913535895484e-01
3.20000000 9.84872096584066e-01
3.30000000 9.83806255509279e-01
3.40000000 9.82725504006481e-01
3.50000000 9.81637963373707e-01
3.60000000 9.80547402088385e-01
3.70000000 9.79456521187769e-01
3.80000000 9.78367079208609e-01
3.90000000 9.77279828048420e-01
4.00000000 9.76194473111255e-01
4.10000000 9.75109656193023e-01
4.20000000 9.74023298062501e-01
4.30000000 9.72932804452930e-01
4.40000000 9.71834730540217e-01
4.50000000 9.70724772743889e-01
4.60000000 9.69597772511051e-01
4.70000000 9.68447731499509e-01
4.80000000 9.67267995879699e-01
4.90000000 9.66056936437459e-01
5.00000000 9.64817419322012e-01
5.10000000 9.63554784419028e-01
5.20000000 9.62276829987129e-01
5.30000000 9.60993725351261e-01
5.40000000 9.59717848430958e-01
5.50000000 9.58462125375834e-01
5.60000000 9.57230265269996e-01
5.70000000 9.56024677131350e-01
5.80000000 9.54848713352145e-01
5.90000000 9.53706755246520e-01
6.00000000 9.52604259306791e-01
6.10000000 9.51547761758624e-01
6.20000000 9.50548009261114e-01
6.30000000 9.49623153394140e-01
6.40000000 9.48786167519500e-01
6.50000000 9.48043493250871e-01
6.60000000 9.47394595593902e-01
6.70000000 9.46831704350952e-01
6.80000000 9.46339737733373e-01
6.90000000 9.45893275786784e-01
7.00000000 9.45464923007779e-01
7.10000000 9.45035200288609e-01
7.20000000 9.44592855800908e-01
7.30000000 9.44134977217896e-01
7.40000000 9.43666963583864e-01
7.50000000 9.43202175792828e-01
7.60000000 9.42751422641231e-01
7.70000000 9.42319295771945e-01
7.80000000 9.41906944825964e-01
7.90000000 9.41511996839461e-01
8.00000000 9.41128534521008e-01
8.10000000 9.40747132983823e-01
8.20000000 9.40355637063906e-01
8.30000000 9.39945186183984e-01
8.40000000 9.39507487124947e-01
8.50000000 9.39033927296655e-01
8.60000000 9.38515780470753e-01
8.70000000 9.37944342469031e-01
8.80000000 9.37310997342934e-01
8.90000000 9.36607803919865e-01
9.00000000 9.35829492162329e-01
9.10000000 9.34972367992392e-01
9.20000000 9.34034226260764e-01
9.30000000 9.33014401529424e-01
9.40000000 9.31913817205131e-01
9.50000000 9.30735028010917e-01
9.60000000 9.29483673739237e-01
9.70000000 9.28167523275323e-01
9.80000000 9.26793344952261e-01
9.90000000 9.25366726548829e-01
10.00000000 9.23891923185787e-01
10.10000000 9.22371720706475e-01
10.20000000 9.20807517230565e-01
10.30000000 9.19209923670940e-01
10.40000000 9.17593021086987e-01
10.50000000 9.15967033367542e-01
10.60000000 9.14337472444688e-01
10.70000000 9.12704310460937e-01
10.80000000 9.11061199119016e-01
10.90000000 9.09393163954653e-01
11.00000000 9.07666676050718e-01
11.10000000 9.05849348512717e-01
11.20000000 9.03915220493461e-01
11.30000000 9.01845366038329e-01
11.40000000 8.99628404795473e-01
11.50000000 8.97260914854170e-01
11.60000000 8.94748938965263e-01
11.70000000 8.92108111289514e-01
11.80000000 8.89355874433992e-01
11.90000000 8.86510783303131e-01
12.00000000 8.83592313312008e-01
12.10000000 8.80620627728221e-01
12.20000000 8.77616311446137e-01
12.30000000 8.74599928911795e-01
12.40000000 8.71589220929023e-01
12.50000000 8.68597004685422e-01
12.60000000 8.65630409947906e-01
12.70000000 8.62690239411553e-01
12.80000000 8.59770470932395e-01
12.90000000 8.56857947297740e-01
13.00000000 8.53936720499672e-01
13.10000000 8.50995432479034e-01
13.20000000 8.48028118442596e-01
13.30000000 8.45034566296877e-01
13.40000000 8.42020407047877e-01
13.50000000 8.38996926818165e-01
13.60000000 8.35980000436565e-01
13.70000000 8.32982369447324e-01
13.80000000 8.30015910549179e-01
13.90000000 8.27092984538831e-01
14.00000000 8.24226205111085e-01
14.10000000 8.21428210956529e-01
14.20000000 8.18711442709651e-01
14.30000000 8.16086993352609e-01
14.40000000 8.13560105771676e-01
14.50000000 8.11131432110811e-01
14.60000000 8.08797252934467e-01
14.70000000 8.06549513921107e-01
14.80000000 8.04375975513873e-01
14.90000000 8.02260471848528e-01
15.00000000 8.00187641823592e-01
15.10000000 7.98151970780709e-01
15.20000000 7.96154384688517e-01
15.30000000 7.94201726683228e-01
15.40000000 7.92306152836604e-01
15.50000000 7.90484374245322e-01
15.60000000 7.88756694573329e-01
15.70000000 7.87135835434988e-01
15.80000000 7.85629187630829e-01
15.90000000 7.84245743193915e-01
16.00000000 7.82995908154371e-01
16.10000000 7.81891253409431e-01
16.20000000 7.80944213028765e-01
16.30000000 7.80168402808289e-01
16.40000000 7.79584532902175e-01
16.50000000 7.79211061427163e-01
16.60000000 7.79060858300234e-01
16.70000000 7.79140883955334e-01
16.80000000 7.79451999784399e-01
16.90000000 7.79988914804603e-01
17.00000000 7.80731670706414e-01
17.10000000 7.81621298600241e-01
17.20000000 7.82600267344680e-01
17.30000000 7.83618064031819e-01
17.40000000 7.84631548591284e-01
17.50000000 7.85604941497137e-01
17.60000000 7.86509538398390e-01
17.70000000 7.87333460340276e-01
17.80000000 7.88084726233251e-01
17.90000000 7.88768400742134e-01
18.00000000 7.89386756124718e-01
18.10000000 7.89939689082998e-01
18.20000000 7.90424823236538e-01
18.30000000 7.90837252582226e-01
18.40000000 7.91165467304991e-01
18.50000000 7.91395619650062e-01
18.60000000 7.91515652409639e-01
18.70000000 7.91515282102287e-01
18.80000000 7.91386104716943e-01
18.90000000 7.91121834877858e-01
19.00000000 7.90718773020160e-01
19.10000000 7.90176454590942e-01
19.20000000 7.89494607261699e-01
19.30000000 7.88672347846775e-01
19.40000000 7.87708050620153e-01
19.50000000 7.86599183848256e-01
19.60000000 7.85342121470255e-01
19.70000000 7.83935872748901e-01
19.80000000 7.82397564666185e-01
19.90000000 7.80746074690031e-01
20.00000000 7.78998716182747e-01
20.10000000 7.77170269755136e-01
20.20000000 7.75271903324652e-01
20.30000000 7.73310027926871e-01
20.40000000 7.71281633218751e-01
20.50000000 7.69173986768716e-01
20.60000000 7.66975520749527e-01
20.70000000 7.64676602123170e-01
20.80000000 7.62269939425633e-01
20.90000000 7.59750876647262e-01
21.00000000 7.57117547313478e-01
21.10000000 7.54367457694599e-01
21.20000000 7.51496336598103e-01
21.30000000 7.48500357083939e-01
21.40000000 7.45376171859416e-01
21.50000000 7.42120984974620e-01
21.60000000 7.38732664825506e-01
21.70000000 7.35210036701728e-01
21.80000000 7.31556482238475e-01
21.90000000 7.27781386601207e-01
22.00000000 7.23899747542533e-01
22.10000000 7.19932084491018e-01
22.20000000 7.15904142335627e-01
22.30000000 7.11846391311661e-01
22.40000000 7.07794248964709e-01
22.50000000 7.03786457329122e-01
22.60000000 6.99852495136983e-01
22.70000000 6.96009964974374e-01
22.80000000 6.92263607210705e-01
22.90000000 6.88604816268750e-01
23.00000000 6.85011691738635e-01
23.10000000 6.81451319746232e-01
23.20000000 6.77895967054021e-01
23.30000000 6.74331932873198e-01
23.40000000 6.70759906047302e-01
23.50000000 6.67194636888086e-01
23.60000000 6.63664009316435e-01
23.70000000 6.60207549118620e-01
23.80000000 6.56867836183406e-01
23.90000000 6.53678729375591e-01
24.00000000 6.50665799286991e-01
24.10000000 6.47845837011164e-01
24.20000000 6.45226628902139e-01
24.30000000 6.42807004748473e-01
24.40000000 6.40577432005429e-01
24.50000000 6.38527606354148e-01
24.60000000 6.36647056554883e-01
24.70000000 6.34923288264341e-01
24.80000000 6.33341796969744e-01
24.90000000 6.31886230447442e-01
25.00000000 6.30538691800378e-01
25.10000000 6.29280560420387e-01
25.20000000 6.28098145886558e-01
25.30000000 6.26985463480620e-01
25.40000000 6.25943184222638e-01
25.50000000 6.24977371699144e-01
25.60000000 6.24098057783150e-01
25.70000000 6.23317728017360e-01
25.80000000 6.22650140726445e-01
25.90000000 6.22108727273172e-01
26.00000000 6.21704125077330e-01
26.10000000 6.21443476125625e-01
26.20000000 6.21329965729908e-01
26.30000000 6.21362558164700e-01
26.40000000 6.21535937471587e-01
26.50000000 6.21827759904999e-01
26.60000000 6.22203479147269e-01
26.70000000 6.22633107072587e-01
26.80000000 6.23091372310638e-01
26.90000000 6.23557533219314e-01
27.00000000 6.24014888940254e-01
27.10000000 6.24450015636384e-01
27.20000000 6.24851756879522e-01
27.30000000 6.25212130624431e-01
27.40000000 6.25525565429153e-01
27.50000000 6.25787511449918e-01
27.60000000 6.25993087142201e-01
27.70000000 6.26135843752780e-01
27.80000000 6.26207172504907e-01
27.90000000 6.26199523017555e-01
28.00000000 6.26106936597191e-01
28.10000000 6.25926181026825e-01
28.20000000 6.25657888608325e-01
28.30000000 6.25307195733651e-01
28.40000000 6.24883833881492e-01
28.50000000 6.24397368700396e-01
28.60000000 6.23845731068914e-01
28.70000000 6.23222197167101e-01
28.80000000 6.22515332813781e-01
28.90000000 6.21708753905207e-01
29.00000000 6.20781332724880e-01
29.10000000 6.19707874339023e-01
29.20000000 6.18472106117718e-01
29.30000000 6.17073950276113e-01
29.40000000 6.15518351367075e-01
29.50000000 6.13815094057739e-01
29.60000000 6.11978229638919e-01
29.70000000 6.10025112277329e-01
29.80000000 6.07974824561477e-01
29.90000000 6.05837941832713e-01
30.00000000 6.03618143758990e-01
30.10000000 6.01315214035807e-01
30.20000000 5.98924456646094e-01
30.30000000 5.96436328038188e-01
30.40000000 5.93836318039914e-01
30.50000000 5.91107254390066e-01
30.60000000 5.88247342245932e-01
30.70000000 5.85263693585424e-01
30.80000000 5.82169095405625e-01
30.90000000 5.78981186553348e-01
31.00000000 5.75721298506615e-01
31.10000000 5.72413007655345e-01
31.20000000 5.69075779234019e-01
31.30000000 5.65712760818166e-01
31.40000000 5.62321966854868e-01
31.50000000 5.58897086269345e-01
31.60000000 5.55427590542333e-01
31.70000000 5.51899055115000e-01
31.80000000 5.48293693442638e-01
31.90000000 5.44611587695514e-01
32.00000000 5.40887322318150e-01
32.10000000 5.37167793491894e-01
32.20000000 5.33508901126671e-01
32.30000000 5.29971718650261e-01
32.40000000 5.26618206945987e-01
32.50000000 5.23505597720952e-01
32.60000000 5.20639072288967e-01
32.70000000 5.17992186105057e-01
32.80000000 5.15532582212615e-01
32.90000000 5.13224792993159e-01
33.00000000 5.11033148993543e-01
33.10000000 5.08924674097929e-01
33.20000000 5.06876482688483e-01
33.30000000 5.04914110695243e-01
33.40000000 5.03083259200497e-01
33.50000000 5.01438276446287e-01
33.60000000 5.00038607681992e-01
33.70000000 4.98944766065893e-01
33.80000000 4.98213999900150e-01
33.90000000 4.97871538151970e-01
34.00000000 4.97855159592678e-01
34.10000000 4.98094542618950e-01
34.20000000 4.98520571196565e-01
34.30000000 4.99068094908095e-01
34.40000000 4.99678502657315e-01
34.50000000 5.00302013069567e-01
34.60000000 5.00906906294872e-01
34.70000000 5.01481431311838e-01
34.80000000 5.02021528961980e-01
34.90000000 5.02529651425095e-01
35.00000000 5.03013264944983e-01
35.10000000 5.03483033086564e-01
35.20000000 5.03950591877998e-01
35.30000000 5.04415719064350e-01
35.40000000 5.04868622920915e-01
35.50000000 5.05296384179965e-01
35.60000000 5.05683805913749e-01
35.70000000 5.06014352733557e-01
35.80000000 5.06271136837678e-01
35.90000000 5.06438732324061e-01
36.00000000 5.06513773003732e-01
36.10000000 5.06503881719161e-01
36.20000000 5.06424955292779e-01
36.30000000 5.06299420852581e-01
36.40000000 5.06154098307472e-01
36.50000000 5.06017771580941e-01
36.60000000 5.05910376267715e-01
36.70000000 5.05820923894995e-01
36.80000000 5.05736435131103e-01
36.90000000 5.05645224025353e-01
37.00000000 5.05537097580392e-01
37.10000000 5.05403264751592e-01
37.20000000 5.05235987910644e-01
37.30000000 5.05027573059443e-01
37.40000000 5.04768395568209e-01
37.50000000 5.04447333673337e-01
37.60000000 5.04052669362027e-01
37.70000000 5.03572862191662e-01
37.80000000 5.02997167327947e-01
37.90000000 5.02316068039849e-01
38.00000000 5.01521686746046e-01
38.10000000 5.00610667127431e-01
38.20000000 4.99584837682499e-01
38.30000000 4.98450494471988e-01
38.40000000 4.97217259770186e-01
38.50000000 4.95896585875169e-01
38.60000000 4.94499113555938e-01
38.70000000 4.93024037425399e-01
38.80000000 4.91465437922111e-01
38.90000000 4.89815515175068e-01
39.00000000 4.88065345480740e-01
39.10000000 4.86205722314519e-01
39.20000000 4.84228049315198e-01
39.30000000 4.82126295052154e-01
39.40000000 4.79902333621382e-01
39.50000000 4.77564120123896e-01
39.60000000 4.75124853347555e-01
39.70000000 4.72602097545101e-01
39.80000000 4.70016560914701e-01
39.90000000 4.67390589877793e-01
40.00000000 4.64744040529668e-01
40.10000000 4.62088941700371e-01
40.20000000 4.59431319774471e-01
40.30000000 4.56770909378836e-01
40.40000000 4.54101092603676e-01
40.50000000 4.51409137321575e-01
40.60000000 4.48676879453765e-01
40.70000000 4.45904335047768e-01
40.80000000 4.43116350949101e-01
40.90000000 4.40349635846631e-01
41.00000000 4.37649624052923e-01
41.10000000 4.35066607010108e-01
41.20000000 4.32651314373210e-01
41.30000000 4.30447596240600e-01
41.40000000 4.28459795529712e-01
41.50000000 4.26678539002727e-01
41.60000000 4.25093615051608e-01
41.70000000 4.23696696034532e-01
41.80000000 4.22483851824448e-01
41.90000000 4.21457723503610e-01
42.00000000 4.20623545903293e-01
42.10000000 4.19967276909883e-01
42.20000000 4.19473000752422e-01
42.30000000 4.19125199216960e-01
42.40000000 4.18908330883830e-01
42.50000000 4.18806470073827e-01
42.60000000 4.18803031695455e-01
42.70000000 4.18878763789322e-01
42.80000000 4.19010421676515e-01
42.90000000 4.19175080968306e-01
43.00000000 4.19351050023458e-01
43.10000000 4.19518586769697e-01
43.20000000 4.19660483317745e-01
43.30000000 4.19762522761322e-01
43.40000000 4.19820312204893e-01
43.50000000 4.19842496304956e-01
43.60000000 4.19845952681216e-01
43.70000000 4.19853332871657e-01
43.80000000 4.19890250375510e-01
43.90000000 4.19982250833305e-01
44.00000000 4.20149698491749e-01
44.10000000 4.20377464044627e-01
44.20000000 4.20635162773005e-01
44.30000000 4.20889312064411e-01
44.40000000 4.21105705689088e-01
44.50000000 4.21251713171246e-01
44.60000000 4.21298406453573e-01
44.70000000 4.21227298343024e-01
44.80000000 4.21051099147032e-01
44.90000000 4.20792972933531e-01
45.00000000 4.20480862046444e-01
45.10000000 4.20144671337047e-01
45.20000000 4.19813378668739e-01
45.30000000 4.19512211385853e-01
45.40000000 4.19246184349522e-01
45.50000000 4.18987741396035e-01
45.60000000 4.18709364458106e-01
45.70000000 4.18386320799255e-01
45.80000000 4.17998183760173e-01
45.90000000 4.17530012994321e-01
46.00000000 4.16973163332511e-01
46.10000000 4.16332646688489e-01
46.20000000 4.15625313157465e-01
46.30000000 4.14871543925009e-01
46.40000000 4.14092585529226e-01
46.50000000 4.13307862180374e-01
46.60000000 4.12532416990073e-01
46.70000000 4.11773640016371e-01
46.80000000 4.11016053755478e-01
46.90000000 4.10239280349474e-01
47.00000000 4.09427361991379e-01
47.10000000 4.08570493842556e-01
47.20000000 4.07666102857321e-01
47.30000000 4.06719229318736e-01
47.40000000 4.05740676696279e-01
47.50000000 4.04737113337698e-01
47.60000000 4.03713065225249e-01
47.70000000 4.02669965308866e-01
47.80000000 4.01604503226977e-01
47.90000000 4.00507410497011e-01
48.00000000 3.99362763815725e-01
48.10000000 3.98148503929748e-01
48.20000000 3.96843891392152e-01
48.30000000 3.95435221224141e-01
48.40000000 3.93917429410557e-01
48.50000000 3.92294927345725e-01
48.60000000 3.90581679196298e-01
48.70000000 3.88800535277454e-01
48.80000000 3.86983376825325e-01
48.90000000 3.85161835190670e-01
49.00000000 3.83360302522995e-01
49.10000000 3.81594350070557e-01
49.20000000 3.79869782614326e-01
49.30000000 3.78182372047312e-01
49.40000000 3.76518932855151e-01
49.50000000 3.74877613890737e-01
49.60000000 3.73275028869520e-01
49.70000000 3.71741074014827e-01
49.80000000 3.70316066135536e-01
49.90000000 3.69047155320938e-01
50.00000000 3.67984189636783e-01
50.10000000 3.67165118685439e-01
50.20000000 3.66563347777933e-01
50.30000000 3.66141811935392e-01
50.40000000 3.65866304621190e-01
50.50000000 3.65708161611062e-01
50.60000000 3.65646404036341e-01
50.70000000 3.65669225175974e-01
50.80000000 3.65776606526586e-01
50.90000000 3.65973638823292e-01
51.00000000 3.66257082584580e-01
51.10000000 3.66615557589685e-01
51.20000000 3.67030620839719e-01
51.30000000 3.67478238732095e-01
51.40000000 3.67930575827934e-01
51.50000000 3.68355655285925e-01
51.60000000 3.68728302809206e-01
51.70000000 3.69037762659391e-01
51.80000000 3.69286941588808e-01
51.90000000 3.69490834456702e-01
52.00000000 3.69674202231687e-01
52.10000000 3.69868213403752e-01
52.20000000 3.70093702740132e-01
52.30000000 3.70356376965111e-01
52.40000000 3.70652045714491e-01
52.50000000 3.70969708369785e-01
52.60000000 3.71295090398561e-01
52.70000000 3.71614443010934e-01
52.80000000 3.71918512263778e-01
52.90000000 3.72207940886949e-01
53.00000000 3.72495379210006e-01
53.10000000 3.72803395614766e-01
53.20000000 3.73161637488438e-01
53.30000000 3.73603511458502e-01
53.40000000 3.74162536835449e-01
53.50000000 3.74857510494452e-01
53.60000000 3.75666444402439e-01
53.70000000 3.76552499628382e-01
53.80000000 3.77469110122357e-01
53.90000000 3.78363899000007e-01
54.00000000 3.79182812250060e-01
54.10000000 3.79874281251434e-01
54.20000000 3.80417175320672e-01
54.30000000 3.80828711669738e-01
54.40000000 3.81135685788833e-01
54.50000000 3.81371631915376e-01
54.60000000 3.81573715877293e-01
54.70000000 3.81779464302438e-01
54.80000000 3.82022538081085e-01
54.90000000 3.82300022910697e-01
55.00000000 3.82586982293325e-01
55.10000000 3.82852992429775e-01
55.20000000 3.83064543224765e-01
55.30000000 3.83187487395414e-01
55.40000000 3.83189432807745e-01
55.50000000 3.83045387419867e-01
55.60000000 3.82763250345958e-01
55.70000000 3.82365715984681e-01
55.80000000 3.81883284737338e-01
55.90000000 3.81351896573825e-01
56.00000000 3.80810308934140e-01
56.10000000 3.80297347054753e-01
56.20000000 3.79834334470593e-01
56.30000000 3.79393528399424e-01
56.40000000 3.78940819826652e-01
56.50000000 3.78440820407360e-01
56.60000000 3.77858903097767e-01
56.70000000 3.77163124857257e-01
56.80000000 3.76325957436794e-01
56.90000000 3.75341674642075e-01
57.00000000 3.74228182177924e-01
57.10000000 3.73004249328353e-01
57.20000000 3.71689237256512e-01
57.30000000 3.70302832752042e-01
57.40000000 3.68864700422193e-01
57.50000000 3.67394010503335e-01
57.60000000 3.65907257726772e-01
57.70000000 3.64419176442469e-01
57.80000000 3.62942657639385e-01
57.90000000 3.61487626208796e-01
58.00000000 3.60060211177719e-01
58.10000000 3.58662250454072e-01
58.20000000 3.57290506778871e-01
58.30000000 3.55933724870461e-01
58.40000000 3.54580527834700e-01
58.50000000 3.53221657397462e-01
58.60000000 3.51850525140580e-01
58.70000000 3.50463579777572e-01
58.80000000 3.49060485331696e-01
58.90000000 3.47649329698026e-01
59.00000000 3.46259533976905e-01
59.10000000 3.44925526574865e-01
59.20000000 3.43682839310145e-01
59.30000000 3.42565523437908e-01
59.40000000 3.41603734927625e-01
59.50000000 3.40821620426340e-01
59.60000000 3.40222545433082e-01
59.70000000 3.39788513489741e-01
59.80000000 3.39503340322576e-01
59.90000000 3.39353792500630e-01
60.00000000 3.39330300355914e-01
60.10000000 3.39427398242719e-01
60.20000000 3.39643598479796e-01
60.30000000 3.39964192371801e-01
60.40000000 3.40366508623633e-01
60.50000000 3.40829944120592e-01
60.60000000 3.41336600066157e-01
