#"time"      "diagonal of the density matrix"
0.00000000  1.00000000000000e+00 0.00000000000000e+00
0.10000000  9.99999999051978e-01 9.48021963982127e-10
0.20000000  9.99999905197828e-01 9.48021722050889e-08
0.30000000  9.99998838674621e-01 1.16132537878599e-06
0.40000000  9.99993310787117e-01 6.68921288294454e-06
0.50000000  9.99974190440618e-01 2.58095593819162e-05
0.60000000  9.99925033439483e-01 7.49665605173129e-05
0.70000000  9.99828844949584e-01 1.71155050416436e-04
0.80000000  9.99672307243924e-01 3.27692756075620e-04
0.90000000  9.99449329126555e-01 5.50670873444498e-04
1.00000000  9.99163388555385e-01 8.36611444614881e-04
1.10000000  9.98819427216889e-01 1.18057278311055e-03
1.20000000  9.98418324534233e-01 1.58167546576751e-03
1.30000000  9.97961032999973e-01 2.03896700002683e-03
1.40000000  9.97448577081453e-01 2.55142291854666e-03
1.50000000  9.96882051194648e-01 3.11794880535205e-03
1.60000000  9.96262605467072e-01 3.73739453292820e-03
1.70000000  9.95591448760070e-01 4.40855123992972e-03
1.80000000  9.94869850947836e-01 5.13014905216454e-03
1.90000000  9.94099141704947e-01 5.90085829505269e-03
2.00000000  9.93280707260551e-01 6.71929273944877e-03
2.10000000  9.92415981361472e-01 7.58401863852764e-03
2.20000000  9.91506449813881e-01 8.49355018611933e-03
2.30000000  9.90553649963579e-01 9.44635003642107e-03
2.40000000  9.89559169217385e-01 1.04408307826150e-02
2.50000000  9.88524601600274e-01 1.14753983997262e-02
2.60000000  9.87451505150885e-01 1.25484948491152e-02
2.70000000  9.86341462350636e-01 1.36585376493637e-02
2.80000000  9.85196080304041e-01 1.48039196959589e-02
2.90000000  9.84016990388930e-01 1.59830096110697e-02
3.00000000  9.82805903609911e-01 1.71940963900888e-02
3.10000000  9.81564597442578e-01 1.84354025574224e-02
3.20000000  9.80294881667004e-01 1.97051183329967e-02
3.30000000  9.78998596700064e-01 2.10014032999360e-02
3.40000000  9.77677609278843e-01 2.23223907211576e-02
3.50000000  9.76333787169173e-01 2.36662128308278e-02
3.60000000  9.74969013790169e-01 2.50309862098317e-02
3.70000000  9.73585192512134e-01 2.64148074878668e-02
3.80000000  9.72184245005743e-01 2.78157549942577e-02
3.90000000  9.70768095464908e-01 2.92319045350925e-02
4.00000000  9.69338634091732e-01 3.06613659082683e-02
4.10000000  9.67897755059146e-01 3.21022449408540e-02
4.20000000  9.66447358567640e-01 3.35526414323603e-02
4.30000000  9.64989349394488e-01 3.50106506055119e-02
4.40000000  9.63525577889000e-01 3.64744221110007e-02
4.50000000  9.62057815918542e-01 3.79421840814582e-02
4.60000000  9.60587825824371e-01 3.94121741756289e-02
4.70000000  9.59117359726030e-01 4.08826402739704e-02
4.80000000  9.57648160708553e-01 4.23518392914474e-02
4.90000000  9.56182031125507e-01 4.38179688744932e-02
5.00000000  9.54720799184632e-01 4.52792008153679e-02
5.10000000  9.53266284901964e-01 4.67337150980367e-02
5.20000000  9.51820298772590e-01 4.81797012274104e-02
5.30000000  9.50384632354508e-01 4.96153676454926e-02
5.40000000  9.48961009665812e-01 5.10389903341887e-02
5.50000000  9.47551127650160e-01 5.24488723498397e-02
5.60000000  9.46156664882830e-01 5.38433351171706e-02
5.70000000  9.44779280519500e-01 5.52207194805003e-02
5.80000000  9.43420567146336e-01 5.65794328536639e-02
5.90000000  9.42081977246736e-01 5.79180227532637e-02
6.00000000  9.40764928326835e-01 5.92350716731648e-02
6.10000000  9.39470807727122e-01 6.05291922728777e-02
6.20000000  9.38200972049676e-01 6.17990279503237e-02
6.30000000  9.36956735755869e-01 6.30432642441308e-02
6.40000000  9.35739370695522e-01 6.42606293044780e-02
6.50000000  9.34550115592837e-01 6.54498844071630e-02
6.60000000  9.33390175552159e-01 6.66098244478412e-02
6.70000000  9.32260721761789e-01 6.77392782382114e-02
6.80000000  9.31162894466648e-01 6.88371055333522e-02
6.90000000  9.30097800476197e-01 6.99021995238028e-02
7.00000000  9.29066511469053e-01 7.09334885309472e-02
7.10000000  9.28070063555376e-01 7.19299364446237e-02
7.20000000  9.27109444098439e-01 7.28905559015614e-02
7.30000000  9.26185541421576e-01 7.38144585784244e-02
7.40000000  9.25299197131379e-01 7.47008028686210e-02
7.50000000  9.24451214073222e-01 7.55487859267777e-02
7.60000000  9.23642356120925e-01 7.63576438790755e-02
7.70000000  9.22873278348969e-01 7.71267216510309e-02
7.80000000  9.22144461989151e-01 7.78555380108488e-02
7.90000000  9.21456341056900e-01 7.85436589431002e-02
8.00000000  9.20809305542914e-01 7.91906944570863e-02
8.10000000  9.20203701690380e-01 7.97962983096201e-02
8.20000000  9.19639863562080e-01 8.03601364379205e-02
8.30000000  9.19118105056555e-01 8.08818949434456e-02
8.40000000  9.18638698400559e-01 8.13613015994412e-02
8.50000000  9.18201874190031e-01 8.17981258099693e-02
8.60000000  9.17807816013665e-01 8.21921839863347e-02
8.70000000  9.17456606505929e-01 8.25433934940714e-02
8.80000000  9.17148270310137e-01 8.28517296898633e-02
8.90000000  9.16882790617499e-01 8.31172093825014e-02
9.00000000  9.16660109361995e-01 8.33398906380048e-02
9.10000000  9.16480108078830e-01 8.35198919211703e-02
9.20000000  9.16342557309019e-01 8.36574426909814e-02
9.30000000  9.16247180561893e-01 8.37528194381072e-02
9.40000000  9.16193661048121e-01 8.38063389518790e-02
9.50000000  9.16181642019851e-01 8.38183579801490e-02
9.60000000  9.16210665884596e-01 8.37893341154042e-02
9.70000000  9.16280146982181e-01 8.37198530178190e-02
9.80000000  9.16389457687003e-01 8.36105423129971e-02
9.90000000  9.16537929407607e-01 8.34620705923933e-02
10.00000000  9.16724853554920e-01 8.32751464450802e-02
10.10000000  9.16949509625914e-01 8.30504903740863e-02
10.20000000  9.17211155407756e-01 8.27888445922437e-02
10.30000000  9.17509013692144e-01 8.24909863078566e-02
10.40000000  9.17842272821949e-01 8.21577271780515e-02
10.50000000  9.18210078332966e-01 8.17899216670344e-02
10.60000000  9.18611476005424e-01 8.13885239945761e-02
10.70000000  9.19045466494031e-01 8.09545335059688e-02
10.80000000  9.19511019888489e-01 8.04889801115116e-02
10.90000000  9.20007076435008e-01 7.99929235649925e-02
11.00000000  9.20532519510550e-01 7.94674804894500e-02
11.10000000  9.21086127741969e-01 7.89138722580312e-02
11.20000000  9.21666647088985e-01 7.83333529110150e-02
11.30000000  9.22272795937744e-01 7.77272040622562e-02
11.40000000  9.22903265841244e-01 7.70967341587566e-02
11.50000000  9.23556694848796e-01 7.64433051512046e-02
11.60000000  9.24231667058101e-01 7.57683329418993e-02
11.70000000  9.24926742496402e-01 7.50732575035980e-02
11.80000000  9.25640457908761e-01 7.43595420912392e-02
11.90000000  9.26371327950752e-01 7.36286720492488e-02
12.00000000  9.27117855684874e-01 7.28821443151262e-02
12.10000000  9.27878532554835e-01 7.21214674451649e-02
12.20000000  9.28651836905179e-01 7.13481630948217e-02
12.30000000  9.29436235124102e-01 7.05637648758980e-02
12.40000000  9.30230175990723e-01 6.97698240092770e-02
12.50000000  9.31032063022134e-01 6.89679369778662e-02
12.60000000  9.31840288872861e-01 6.81597111271394e-02
12.70000000  9.32653242302502e-01 6.73467576974987e-02
12.80000000  9.33469309491477e-01 6.65306905085230e-02
12.90000000  9.34286837228444e-01 6.57131627715562e-02
13.00000000  9.35104090028968e-01 6.48959099710321e-02
13.10000000  9.35919325075593e-01 6.40806749244073e-02
13.20000000  9.36730795650393e-01 6.32692043496075e-02
13.30000000  9.37536752261459e-01 6.24632477385411e-02
13.40000000  9.38335471588866e-01 6.16645284111339e-02
13.50000000  9.39125256869357e-01 6.08747431306430e-02
13.60000000  9.39904420310144e-01 6.00955796898558e-02
13.70000000  9.40671284421421e-01 5.93287155785796e-02
13.80000000  9.41424183310216e-01 5.85758166897845e-02
13.90000000  9.42161464859876e-01 5.78385351401238e-02
14.00000000  9.42881495421371e-01 5.71185045786294e-02
14.10000000  9.43582661859851e-01 5.64173381401490e-02
14.20000000  9.44263372972309e-01 5.57366270276911e-02
14.30000000  9.44922059446384e-01 5.50779405536158e-02
14.40000000  9.45557172036458e-01 5.44428279635426e-02
14.50000000  9.46167189824888e-01 5.38328101751117e-02
14.60000000  9.46750622319000e-01 5.32493776810001e-02
14.70000000  9.47306010803203e-01 5.26939891967971e-02
14.80000000  9.47831879088390e-01 5.21681209116104e-02
14.90000000  9.48326700022057e-01 5.16732999779434e-02
15.00000000  9.48788970141415e-01 5.12110298585856e-02
15.10000000  9.49217211472407e-01 5.07827885275929e-02
15.20000000  9.49609974085751e-01 5.03900259142491e-02
15.30000000  9.49965935842070e-01 5.00340641579297e-02
15.40000000  9.50283872608795e-01 4.97161273912055e-02
15.50000000  9.50562605651192e-01 4.94373943488085e-02
15.60000000  9.50801002701337e-01 4.91989972986627e-02
15.70000000  9.50997979532086e-01 4.90020204679144e-02
15.80000000  9.51152505609608e-01 4.88474943903921e-02
15.90000000  9.51263602351988e-01 4.87363976480124e-02
16.00000000  9.51330343012521e-01 4.86696569874791e-02
16.10000000  9.51351853441264e-01 4.86481465587361e-02
16.20000000  9.51327303019705e-01 4.86726969802955e-02
16.30000000  9.51255884306324e-01 4.87441156936759e-02
16.40000000  9.51136839017356e-01 4.88631609826437e-02
16.50000000  9.50969460333838e-01 4.90305396661618e-02
16.60000000  9.50753093231347e-01 4.92469067686534e-02
16.70000000  9.50487098135693e-01 4.95129018643070e-02
16.80000000  9.50170841167902e-01 4.98291588320978e-02
16.90000000  9.49803734474316e-01 5.01962655256843e-02
17.00000000  9.49385236242927e-01 5.06147637570731e-02
17.10000000  9.48914856336285e-01 5.10851436637150e-02
17.20000000  9.48392300901712e-01 5.16076990982877e-02
17.30000000  9.47817399707661e-01 5.21826002923390e-02
17.40000000  9.47190043695886e-01 5.28099563041140e-02
17.50000000  9.46510184729873e-01 5.34898152701273e-02
17.60000000  9.45777839017003e-01 5.42221609829977e-02
17.70000000  9.44993105729879e-01 5.50068942701212e-02
17.80000000  9.44156148123345e-01 5.58438518766553e-02
17.90000000  9.43267189224801e-01 5.67328107751988e-02
18.00000000  9.42326511155997e-01 5.76734888440030e-02
18.10000000  9.41334389782747e-01 5.86656102172536e-02
18.20000000  9.40291004251435e-01 5.97089957485656e-02
18.30000000  9.39196570064669e-01 6.08034299353309e-02
18.40000000  9.38051343635478e-01 6.19486563645226e-02
18.50000000  9.36855621354408e-01 6.31443786455923e-02
18.60000000  9.35609820075520e-01 6.43901799244809e-02
18.70000000  9.34314469343313e-01 6.56855306566870e-02
18.80000000  9.32970143183526e-01 6.70298568164742e-02
18.90000000  9.31577458822028e-01 6.84225411779720e-02
19.00000000  9.30137081240597e-01 6.98629187594034e-02
19.10000000  9.28649804250638e-01 7.13501957493623e-02
19.20000000  9.27116494225270e-01 7.28835057747305e-02
19.30000000  9.25538060220663e-01 7.44619397793371e-02
19.40000000  9.23915452421238e-01 7.60845475787621e-02
19.50000000  9.22249665943019e-01 7.77503340569809e-02
19.60000000  9.20541757505135e-01 7.94582424948653e-02
19.70000000  9.18792822566990e-01 8.12071774330102e-02
19.80000000  9.17003990812337e-01 8.29960091876638e-02
19.90000000  9.15176424417038e-01 8.48235755829619e-02
20.00000000  9.13311181497663e-01 8.66888185023371e-02
20.10000000  9.11409107041297e-01 8.85908929587037e-02
20.20000000  9.09471051869042e-01 9.05289481309581e-02
20.30000000  9.07497875047766e-01 9.25021249522339e-02
20.40000000  9.05490445029920e-01 9.45095549700800e-02
20.50000000  9.03449863204275e-01 9.65501367957249e-02
20.60000000  9.01377389427100e-01 9.86226105729001e-02
20.70000000  8.99274299626219e-01 1.00725700373781e-01
20.80000000  8.97141884007288e-01 1.02858115992712e-01
20.90000000  8.94981444639808e-01 1.05018555360193e-01
21.00000000  8.92794287976794e-01 1.07205712023206e-01
21.10000000  8.90581726360174e-01 1.09418273639826e-01
21.20000000  8.88345077624844e-01 1.11654922375157e-01
21.30000000  8.86085663404823e-01 1.13914336595178e-01
21.40000000  8.83804787985453e-01 1.16195212014547e-01
21.50000000  8.81503690195475e-01 1.18496309804525e-01
21.60000000  8.79183598620821e-01 1.20816401379180e-01
21.70000000  8.76845735072441e-01 1.23154264927559e-01
21.80000000  8.74491313122162e-01 1.25508686877838e-01
21.90000000  8.72121399567581e-01 1.27878600432419e-01
22.00000000  8.69736866643831e-01 1.30263133356170e-01
22.10000000  8.67338563268078e-01 1.32661436731923e-01
22.20000000  8.64927314629371e-01 1.35072685370629e-01
22.30000000  8.62503929567691e-01 1.37496070432310e-01
22.40000000  8.60069466132127e-01 1.39930533867873e-01
22.50000000  8.57625096237850e-01 1.42374903762151e-01
22.60000000  8.55171975236092e-01 1.44828024763908e-01
22.70000000  8.52711240782312e-01 1.47288759217688e-01
22.80000000  8.50244006139589e-01 1.49755993860412e-01
22.90000000  8.47771326795378e-01 1.52228673204622e-01
23.00000000  8.45294228928258e-01 1.54705771071742e-01
23.10000000  8.42813715400378e-01 1.57186284599622e-01
23.20000000  8.40330764959978e-01 1.59669235040023e-01
23.30000000  8.37846229883285e-01 1.62153770116716e-01
23.40000000  8.35360678693618e-01 1.64639321306382e-01
23.50000000  8.32874632753798e-01 1.67125367246202e-01
23.60000000  8.30388577871765e-01 1.69611422128236e-01
23.70000000  8.27902963960438e-01 1.72097036039562e-01
23.80000000  8.25418229524626e-01 1.74581770475374e-01
23.90000000  8.22934800969753e-01 1.77065199030248e-01
24.00000000  8.20453069377610e-01 1.79546930622391e-01
24.10000000  8.17973390327610e-01 1.82026609672390e-01
24.20000000  8.15496091892120e-01 1.84503908107880e-01
24.30000000  8.13021609927472e-01 1.86978390072528e-01
24.40000000  8.10550400957561e-01 1.89449599042439e-01
24.50000000  8.08082890878148e-01 1.91917109121852e-01
24.60000000  8.05619474953392e-01 1.94380525046608e-01
24.70000000  8.03160513713894e-01 1.96839486286106e-01
24.80000000  8.00706317406964e-01 1.99293682593036e-01
24.90000000  7.98257164059783e-01 2.01742835940218e-01
25.00000000  7.95813302459249e-01 2.04186697540752e-01
25.10000000  7.93374952435145e-01 2.06625047564855e-01
25.20000000  7.90942114098328e-01 2.09057885901672e-01
25.30000000  7.88514391454854e-01 2.11485608545146e-01
25.40000000  7.86091341776528e-01 2.13908658223472e-01
25.50000000  7.83672484835322e-01 2.16327515164678e-01
25.60000000  7.81257305354053e-01 2.18742694645947e-01
25.70000000  7.78845489330694e-01 2.21154510669306e-01
25.80000000  7.76436859851445e-01 2.23563140148555e-01
25.90000000  7.74031214454243e-01 2.25968785545757e-01
26.00000000  7.71628325805943e-01 2.28371674194057e-01
26.10000000  7.69227941384033e-01 2.30772058615967e-01
26.20000000  7.66829774725947e-01 2.33170225274054e-01
26.30000000  7.64433515566309e-01 2.35566484433691e-01
26.40000000  7.62038833946756e-01 2.37961166053245e-01
26.50000000  7.59645381087527e-01 2.40354618912474e-01
26.60000000  7.57252773026837e-01 2.42747226973163e-01
26.70000000  7.54860546645524e-01 2.45139453354476e-01
26.80000000  7.52468218113855e-01 2.47531781886145e-01
26.90000000  7.50075289662058e-01 2.49924710337943e-01
27.00000000  7.47681250625552e-01 2.52318749374449e-01
27.10000000  7.45285375738271e-01 2.54714624261729e-01
27.20000000  7.42886634933630e-01 2.57113365066371e-01
27.30000000  7.40483978594754e-01 2.59516021405246e-01
27.40000000  7.38076341010356e-01 2.61923658989645e-01
27.50000000  7.35662649735113e-01 2.64337350264887e-01
27.60000000  7.33242159155083e-01 2.66757840844917e-01
27.70000000  7.30814299742057e-01 2.69185700257944e-01
27.80000000  7.28378503149145e-01 2.71621496850855e-01
27.90000000  7.25934203419864e-01 2.74065796580136e-01
28.00000000  7.23480830707243e-01 2.76519169292757e-01
28.10000000  7.21017764368661e-01 2.78982235631339e-01
28.20000000  7.18544380197532e-01 2.81455619802469e-01
28.30000000  7.16060063408852e-01 2.83939936591149e-01
28.40000000  7.13564209904157e-01 2.86435790095844e-01
28.50000000  7.11056145879812e-01 2.88943854120189e-01
28.60000000  7.08534985454434e-01 2.91465014545566e-01
28.70000000  7.05999841232393e-01 2.94000158767607e-01
28.80000000  7.03449838422762e-01 2.96550161577239e-01
28.90000000  7.00884116193454e-01 2.99115883806547e-01
29.00000000  6.98301769151641e-01 3.01698230848359e-01
29.10000000  6.95701845088082e-01 3.04298154911919e-01
29.20000000  6.93083409296311e-01 3.06916590703689e-01
29.30000000  6.90445545952692e-01 3.09554454047308e-01
29.40000000  6.87787371877773e-01 3.12212628122227e-01
29.50000000  6.85108287491367e-01 3.14891712508633e-01
29.60000000  6.82407828186074e-01 3.17592171813926e-01
29.70000000  6.79685562776689e-01 3.20314437223311e-01
29.80000000  6.76941094567424e-01 3.23058905432576e-01
29.90000000  6.74174059936660e-01 3.25825940063340e-01
30.00000000  6.71384119543670e-01 3.28615880456330e-01
30.10000000  6.68570972202916e-01 3.31429027797084e-01
30.20000000  6.65734357872411e-01 3.34265642127589e-01
30.30000000  6.62874058458651e-01 3.37125941541349e-01
30.40000000  6.59989703269865e-01 3.40010296730135e-01
30.50000000  6.57080554327421e-01 3.42919445672579e-01
30.60000000  6.54145896771993e-01 3.45854103228007e-01
30.70000000  6.51185052376709e-01 3.48814947623291e-01
30.80000000  6.48197381389960e-01 3.51802618610041e-01
30.90000000  6.45182506584126e-01 3.54817493415874e-01
31.00000000  6.42140268228864e-01 3.57859731771136e-01
31.10000000  6.39070554159150e-01 3.60929445840850e-01
31.20000000  6.35973300163513e-01 3.64026699836488e-01
31.30000000  6.32848495191275e-01 3.67151504808725e-01
31.40000000  6.29696239508773e-01 3.70303760491227e-01
31.50000000  6.26516703670616e-01 3.73483296329384e-01
31.60000000  6.23310110035405e-01 3.76689889964595e-01
31.70000000  6.20076732625331e-01 3.79923267374669e-01
31.80000000  6.16816893587795e-01 3.83183106412205e-01
31.90000000  6.13530953477714e-01 3.86469046522286e-01
32.00000000  6.10219323477257e-01 3.89780676522743e-01
32.10000000  6.06882466272789e-01 3.93117533727211e-01
32.20000000  6.03520895410376e-01 3.96479104589624e-01
32.30000000  6.00134925464626e-01 3.99865074535374e-01
32.40000000  5.96724524798016e-01 4.03275475201984e-01
32.50000000  5.93289698986374e-01 4.06710301013626e-01
32.60000000  5.89830495249923e-01 4.10169504750077e-01
32.70000000  5.86347009320905e-01 4.13652990679095e-01
32.80000000  5.82839790141866e-01 4.17160209858134e-01
32.90000000  5.79309670601287e-01 4.20690329398713e-01
33.00000000  5.75757529746950e-01 4.24242470253050e-01
33.10000000  5.72184291285431e-01 4.27815708714569e-01
33.20000000  5.68590918023959e-01 4.31409081976041e-01
33.30000000  5.64978380612250e-01 4.35021619387750e-01
33.40000000  5.61347681952019e-01 4.38652318047981e-01
33.50000000  5.57699863006483e-01 4.42300136993517e-01
33.60000000  5.54036000871625e-01 4.45963999128375e-01
33.70000000  5.50357153447592e-01 4.49642846552408e-01
33.80000000  5.46664249876487e-01 4.53335750123513e-01
33.90000000  5.42958237465247e-01 4.57041762534753e-01
34.00000000  5.39240090560251e-01 4.60759909439749e-01
34.10000000  5.35510808552522e-01 4.64489191447478e-01
34.20000000  5.31771270428312e-01 4.68228729571688e-01
34.30000000  5.28022207551590e-01 4.71977792448410e-01
34.40000000  5.24264369019742e-01 4.75735630980258e-01
34.50000000  5.20498520159087e-01 4.79501479840913e-01
34.60000000  5.16725455973643e-01 4.83274544026357e-01
34.70000000  5.12946375248144e-01 4.87053624751856e-01
34.80000000  5.09162659531994e-01 4.90837340468006e-01
34.90000000  5.05375699367751e-01 4.94624300632249e-01
35.00000000  5.01586891585517e-01 4.98413108414483e-01
35.10000000  4.97797636514851e-01 5.02202363485149e-01
35.20000000  4.94009334913112e-01 5.05990665086888e-01
35.30000000  4.90223385582477e-01 5.09776614417523e-01
35.40000000  4.86441182715336e-01 5.13558817284664e-01
35.50000000  4.82664113181207e-01 5.17335886818793e-01
35.60000000  4.78893382388613e-01 5.21106617611387e-01
35.70000000  4.75129792671627e-01 5.24870207328373e-01
35.80000000  4.71374118021028e-01 5.28625881978972e-01
35.90000000  4.67627117544979e-01 5.32372882455021e-01
36.00000000  4.63889533945640e-01 5.36110466054361e-01
36.10000000  4.60162258638167e-01 5.39837741361833e-01
36.20000000  4.56446304624994e-01 5.43553695375006e-01
36.30000000  4.52742661248432e-01 5.47257338751569e-01
