#"time"      "diagonal of the density matrix"
0.00000000  0.00000000000000e+00 1.00000000000000e+00
0.02000000  1.21430615539496e-03 9.98785693844605e-01
0.04000000  2.85601567154280e-03 9.97143984328457e-01
0.06000000  4.92247525710982e-03 9.95077524742890e-01
0.08000000  7.41056306258063e-03 9.92589436937419e-01
0.10000000  1.03166933733254e-02 9.89683306626675e-01
0.12000000  1.36368218005548e-02 9.86363178199445e-01
0.14000000  1.73664509635520e-02 9.82633549036448e-01
0.16000000  2.15006366560753e-02 9.78499363343925e-01
0.18000000  2.60339944893448e-02 9.73966005510655e-01
0.20000000  3.09607070035437e-02 9.69039292996456e-01
0.22000000  3.62745312393013e-02 9.63725468760699e-01
0.24000000  4.19688067601583e-02 9.58031193239842e-01
0.26000000  4.80364641165684e-02 9.51963535883432e-01
0.28000000  5.44700337415452e-02 9.45529966258455e-01
0.30000000  6.12616552676319e-02 9.38738344732368e-01
0.32000000  6.84030872544476e-02 9.31596912745552e-01
0.34000000  7.58857173156561e-02 9.24114282684344e-01
0.36000000  8.37005726337968e-02 9.16299427366203e-01
0.38000000  9.18383308510345e-02 9.08161669148965e-01
0.40000000  1.00289331323501e-01 8.99710668676499e-01
0.42000000  1.09043586726539e-01 8.90956413273461e-01
0.44000000  1.18090794997813e-01 8.81909205002187e-01
0.46000000  1.27420351604889e-01 8.72579648395111e-01
0.48000000  1.37021362123587e-01 8.62978637876413e-01
0.50000000  1.46882655113084e-01 8.53117344886916e-01
0.52000000  1.56992795273425e-01 8.43007204726575e-01
0.54000000  1.67340096870857e-01 8.32659903129143e-01
0.56000000  1.77912637416092e-01 8.22087362583908e-01
0.58000000  1.88698271580361e-01 8.11301728419639e-01
0.60000000  1.99684645333889e-01 8.00315354666111e-01
0.62000000  2.10859210291177e-01 7.89140789708823e-01
0.64000000  2.22209238247280e-01 7.77790761752720e-01
0.66000000  2.33721835889066e-01 7.66278164110934e-01
0.68000000  2.45383959665277e-01 7.54616040334723e-01
0.70000000  2.57182430799011e-01 7.42817569200989e-01
0.72000000  2.69103950426167e-01 7.30896049573833e-01
0.74000000  2.81135114843176e-01 7.18864885156824e-01
0.76000000  2.93262430847317e-01 7.06737569152683e-01
0.78000000  3.05472331152743e-01 6.94527668847257e-01
0.80000000  3.17751189865330e-01 6.82248810134670e-01
0.82000000  3.30085337999339e-01 6.69914662000661e-01
0.84000000  3.42461079018888e-01 6.57538920981113e-01
0.86000000  3.54864704387169e-01 6.45135295612831e-01
0.88000000  3.67282509106357e-01 6.32717490893643e-01
0.90000000  3.79700807231141e-01 6.20299192768859e-01
0.92000000  3.92105947338876e-01 6.07894052661124e-01
0.94000000  4.04484327939338e-01 5.95515672060662e-01
0.96000000  4.16822412807190e-01 5.83177587192810e-01
0.98000000  4.29106746220290e-01 5.70893253779710e-01
1.00000000  4.41323968087109e-01 5.58676031912891e-01
1.02000000  4.53460828946617e-01 5.46539171053383e-01
1.04000000  4.65504204824144e-01 5.34495795175856e-01
1.06000000  4.77441111926851e-01 5.22558888073150e-01
1.08000000  4.89258721162641e-01 5.10741278837359e-01
1.10000000  5.00944372466510e-01 4.99055627533491e-01
1.12000000  5.12485588918524e-01 4.87514411081477e-01
1.14000000  5.23870090637867e-01 4.76129909362133e-01
1.16000000  5.35085808437602e-01 4.64914191562398e-01
1.18000000  5.46120897225063e-01 4.53879102774938e-01
1.20000000  5.56963749133055e-01 4.43036250866945e-01
1.22000000  5.67603006367342e-01 4.32396993632658e-01
1.24000000  5.78027573756167e-01 4.21972426243833e-01
1.26000000  5.88226630987925e-01 4.11773369012075e-01
1.28000000  5.98189644523386e-01 4.01810355476615e-01
1.30000000  6.07906379169246e-01 3.92093620830754e-01
1.32000000  6.17366909300157e-01 3.82633090699844e-01
1.34000000  6.26561629716726e-01 3.73438370283275e-01
1.36000000  6.35481266127418e-01 3.64518733872582e-01
1.38000000  6.44116885242667e-01 3.55883114757334e-01
1.40000000  6.52459904469929e-01 3.47540095530071e-01
1.42000000  6.60502101198876e-01 3.39497898801125e-01
1.44000000  6.68235621666317e-01 3.31764378333683e-01
1.46000000  6.75652989390966e-01 3.24347010609034e-01
1.48000000  6.82747113168578e-01 3.17252886831422e-01
1.50000000  6.89511294618519e-01 3.10488705381481e-01
1.52000000  6.95939235273280e-01 3.04060764726720e-01
1.54000000  7.02025043202996e-01 2.97974956797004e-01
1.56000000  7.07763239167504e-01 2.92236760832496e-01
1.58000000  7.13148762289030e-01 2.86851237710970e-01
1.60000000  7.18176975239121e-01 2.81823024760879e-01
1.62000000  7.22843668933965e-01 2.77156331066035e-01
1.64000000  7.27145066732817e-01 2.72854933267183e-01
1.66000000  7.31077828134790e-01 2.68922171865210e-01
1.68000000  7.34639051969832e-01 2.65360948030168e-01
1.70000000  7.37826279080301e-01 2.62173720919699e-01
1.72000000  7.40637494490092e-01 2.59362505509908e-01
1.74000000  7.43071129058891e-01 2.56928870941110e-01
1.76000000  7.45126060619671e-01 2.54873939380330e-01
1.78000000  7.46801614598181e-01 2.53198385401820e-01
1.80000000  7.48097564113723e-01 2.51902435886277e-01
1.82000000  7.49014129561143e-01 2.50985870438857e-01
1.84000000  7.49551977674534e-01 2.50448022325466e-01
1.86000000  7.49712220073750e-01 2.50287779926250e-01
1.88000000  7.49496411295437e-01 2.50503588704563e-01
1.90000000  7.48906546310863e-01 2.51093453689137e-01
1.92000000  7.47945057533435e-01 2.52054942466566e-01
1.94000000  7.46614811319382e-01 2.53385188680618e-01
1.96000000  7.44919103965676e-01 2.55080896034324e-01
1.98000000  7.42861657209827e-01 2.57138342790173e-01
2.00000000  7.40446613236811e-01 2.59553386763189e-01
2.02000000  7.37678529198921e-01 2.62321470801079e-01
2.04000000  7.34562371254942e-01 2.65437628745058e-01
2.06000000  7.31103508135588e-01 2.68896491864412e-01
2.08000000  7.27307704242718e-01 2.72692295757282e-01
2.10000000  7.23181112290388e-01 2.76818887709612e-01
2.12000000  7.18730265496342e-01 2.81269734503659e-01
2.14000000  7.13962069333077e-01 2.86037930666923e-01
2.16000000  7.08883792848161e-01 2.91116207151840e-01
2.18000000  7.03503059563952e-01 2.96496940436049e-01
2.20000000  6.97827837967430e-01 3.02172162032570e-01
2.22000000  6.91866431601297e-01 3.08133568398704e-01
2.24000000  6.85627468767999e-01 3.14372531232002e-01
2.26000000  6.79119891858804e-01 3.20880108141197e-01
2.28000000  6.72352946320493e-01 3.27647053679507e-01
2.30000000  6.65336169272699e-01 3.34663830727302e-01
2.32000000  6.58079377789307e-01 3.41920622210694e-01
2.34000000  6.50592656857800e-01 3.49407343142200e-01
2.36000000  6.42886347030768e-01 3.57113652969232e-01
2.38000000  6.34971031784213e-01 3.65028968215787e-01
2.40000000  6.26857524597645e-01 3.73142475402355e-01
2.42000000  6.18556855771276e-01 3.81443144228724e-01
2.44000000  6.10080258995998e-01 3.89919741004002e-01
2.46000000  6.01439157692083e-01 3.98560842307917e-01
2.48000000  5.92645151132875e-01 4.07354848867126e-01
2.50000000  5.83710000369995e-01 4.16289999630005e-01
2.52000000  5.74645613976842e-01 4.25354386023159e-01
2.54000000  5.65464033627380e-01 4.34535966372620e-01
2.56000000  5.56177419527463e-01 4.43822580472537e-01
2.58000000  5.46798035716072e-01 4.53201964283929e-01
2.60000000  5.37338235254076e-01 4.62661764745924e-01
2.62000000  5.27810445318232e-01 4.72189554681768e-01
2.64000000  5.18227152218278e-01 4.81772847781722e-01
2.66000000  5.08600886355097e-01 4.91399113644903e-01
2.68000000  4.98944207137986e-01 5.01055792862014e-01
2.70000000  4.89269687879153e-01 5.10730312120847e-01
2.72000000  4.79589900683584e-01 5.20410099316416e-01
2.74000000  4.69917401352451e-01 5.30082598647549e-01
2.76000000  4.60264714318232e-01 5.39735285681768e-01
2.78000000  4.50644317629674e-01 5.49355682370326e-01
2.80000000  4.41068628004699e-01 5.58931371995301e-01
2.82000000  4.31549985969256e-01 5.68450014030744e-01
2.84000000  4.22100641100066e-01 5.77899358899935e-01
2.86000000  4.12732737389046e-01 5.87267262610954e-01
2.88000000  4.03458298747112e-01 5.96541701252888e-01
2.90000000  3.94289214664837e-01 6.05710785335163e-01
2.92000000  3.85237226047331e-01 6.14762773952669e-01
2.94000000  3.76313911240442e-01 6.23686088759559e-01
2.96000000  3.67530672265189e-01 6.32469327734811e-01
2.98000000  3.58898721277085e-01 6.41101278722915e-01
3.00000000  3.50429067266728e-01 6.49570932733273e-01
3.02000000  3.42132503017759e-01 6.57867496982242e-01
3.04000000  3.34019592337985e-01 6.65980407662016e-01
3.06000000  3.26100657579114e-01 6.73899342420886e-01
3.08000000  3.18385767460226e-01 6.81614232539774e-01
3.10000000  3.10884725209704e-01 6.89115274790297e-01
3.12000000  3.03607057040006e-01 6.96392942959994e-01
3.14000000  2.96562000969208e-01 7.03437999030792e-01
3.16000000  2.89758496002849e-01 7.10241503997151e-01
3.18000000  2.83205171689173e-01 7.16794828310827e-01
3.20000000  2.76910338060379e-01 7.23089661939621e-01
3.22000000  2.70881975972052e-01 7.29118024027948e-01
3.24000000  2.65127727852419e-01 7.34872272147582e-01
3.26000000  2.59654888872601e-01 7.40345111127400e-01
3.28000000  2.54470398548493e-01 7.45529601451508e-01
3.30000000  2.49580832784376e-01 7.50419167215625e-01
3.32000000  2.44992396367819e-01 7.55007603632181e-01
3.34000000  2.40710915924868e-01 7.59289084075132e-01
3.36000000  2.36741833343941e-01 7.63258166656059e-01
3.38000000  2.33090199676283e-01 7.66909800323718e-01
3.40000000  2.29760669520216e-01 7.70239330479784e-01
3.42000000  2.26757495895844e-01 7.73242504104157e-01
3.44000000  2.24084525616227e-01 7.75915474383773e-01
3.46000000  2.21745195160466e-01 7.78254804839534e-01
3.48000000  2.19742527053453e-01 7.80257472946547e-01
3.50000000  2.18079126756465e-01 7.81920873243536e-01
3.52000000  2.16757180072098e-01 7.83242819927903e-01
3.54000000  2.15778451066420e-01 7.84221548933580e-01
3.56000000  2.15144280510552e-01 7.84855719489449e-01
3.58000000  2.14855584843252e-01 7.85144415156748e-01
3.60000000  2.14912855655416e-01 7.85087144344584e-01
3.62000000  2.15316159696744e-01 7.84683840303256e-01
3.64000000  2.16065139404188e-01 7.83934860595813e-01
3.66000000  2.17159013951108e-01 7.82840986048892e-01
3.68000000  2.18596580815448e-01 7.81403419184552e-01
3.70000000  2.20376217864546e-01 7.79623782135455e-01
3.72000000  2.22495885953580e-01 7.77504114046420e-01
3.74000000  2.24953132033991e-01 7.75046867966009e-01
3.76000000  2.27745092767564e-01 7.72254907232437e-01
3.78000000  2.30868498641244e-01 7.69131501358756e-01
3.80000000  2.34319678577116e-01 7.65680321422884e-01
3.82000000  2.38094565031343e-01 7.61905434968657e-01
3.84000000  2.42188699575263e-01 7.57811300424738e-01
3.86000000  2.46597238951228e-01 7.53402761048772e-01
3.88000000  2.51314961595170e-01 7.48685038404831e-01
3.90000000  2.56336274617283e-01 7.43663725382717e-01
3.92000000  2.61655221231666e-01 7.38344778768334e-01
3.94000000  2.67265488625156e-01 7.32734511374844e-01
3.96000000  2.73160416255083e-01 7.26839583744918e-01
3.98000000  2.79333004565098e-01 7.20666995434902e-01
4.00000000  2.85775924107730e-01 7.14224075892270e-01
4.02000000  2.92481525061789e-01 7.07518474938212e-01
4.04000000  2.99441847132273e-01 7.00558152867727e-01
4.06000000  3.06648629819934e-01 6.93351370180066e-01
4.08000000  3.14093323047192e-01 6.85906676952809e-01
4.10000000  3.21767098126671e-01 6.78232901873329e-01
4.12000000  3.29660859058181e-01 6.70339140941819e-01
4.14000000  3.37765254139559e-01 6.62234745860441e-01
4.16000000  3.46070687876420e-01 6.53929312123580e-01
4.18000000  3.54567333175469e-01 6.45432666824531e-01
4.20000000  3.63245143805707e-01 6.36754856194293e-01
4.22000000  3.72093867111502e-01 6.27906132888498e-01
4.24000000  3.81103056961222e-01 6.18896943038778e-01
4.26000000  3.90262086914819e-01 6.09737913085181e-01
4.28000000  3.99560163593498e-01 6.00439836406502e-01
4.30000000  4.08986340234363e-01 5.91013659765637e-01
4.32000000  4.18529530412713e-01 5.81470469587287e-01
4.34000000  4.28178521914457e-01 5.71821478085543e-01
4.36000000  4.37921990740961e-01 5.62078009259039e-01
4.38000000  4.47748515228463e-01 5.52251484771537e-01
4.40000000  4.57646590264100e-01 5.42353409735900e-01
4.42000000  4.67604641580453e-01 5.32395358419547e-01
4.44000000  4.77611040110460e-01 5.22388959889540e-01
4.46000000  4.87654116384481e-01 5.12345883615519e-01
4.48000000  4.97722174951279e-01 5.02277825048721e-01
4.50000000  5.07803508804647e-01 4.92196491195353e-01
4.52000000  5.17886413797469e-01 4.82113586202531e-01
4.54000000  5.27959203024991e-01 4.72040796975009e-01
4.56000000  5.38010221159200e-01 4.61989778840800e-01
4.58000000  5.48027858716244e-01 4.51972141283756e-01
4.60000000  5.58000566238970e-01 4.41999433761030e-01
4.62000000  5.67916868376782e-01 4.32083131623218e-01
4.64000000  5.77765377845177e-01 4.22234622154823e-01
4.66000000  5.87534809247504e-01 4.12465190752496e-01
4.68000000  5.97213992741683e-01 4.02786007258318e-01
4.70000000  6.06791887534864e-01 3.93208112465137e-01
4.72000000  6.16257595189242e-01 3.83742404810758e-01
4.74000000  6.25600372722521e-01 3.74399627277479e-01
4.76000000  6.34809645486792e-01 3.65190354513209e-01
4.78000000  6.43875019809952e-01 3.56124980190048e-01
4.80000000  6.52786295384055e-01 3.47213704615945e-01
4.82000000  6.61533477385402e-01 3.38466522614598e-01
4.84000000  6.70106788311502e-01 3.29893211688498e-01
4.86000000  6.78496679520471e-01 3.21503320479530e-01
4.88000000  6.86693842458800e-01 3.13306157541200e-01
4.90000000  6.94689219563901e-01 3.05310780436099e-01
4.92000000  7.02474014828227e-01 2.97525985171773e-01
4.94000000  7.10039704012296e-01 2.89960295987704e-01
4.96000000  7.17378044494350e-01 2.82621955505651e-01
4.98000000  7.24481084744941e-01 2.75518915255060e-01
5.00000000  7.31341173415196e-01 2.68658826584804e-01
5.02000000  7.37950968028069e-01 2.62049031971932e-01
5.04000000  7.44303443262387e-01 2.55696556737613e-01
5.06000000  7.50391898820100e-01 2.49608101179900e-01
5.08000000  7.56209966867635e-01 2.43790033132366e-01
5.10000000  7.61751619042887e-01 2.38248380957113e-01
5.12000000  7.67011173019930e-01 2.32988826980070e-01
5.14000000  7.71983298624113e-01 2.28016701375888e-01
5.16000000  7.76663023490837e-01 2.23336976509163e-01
5.18000000  7.81045738261889e-01 2.18954261738112e-01
5.20000000  7.85127201313822e-01 2.14872798686178e-01
5.22000000  7.88903543013516e-01 2.11096456986484e-01
5.24000000  7.92371269496644e-01 2.07628730503356e-01
5.26000000  7.95527265965425e-01 2.04472734034575e-01
5.28000000  7.98368799502662e-01 2.01631200497338e-01
5.30000000  8.00893521399705e-01 1.99106478600295e-01
5.32000000  8.03099468996616e-01 1.96900531003385e-01
5.34000000  8.04985067033443e-01 1.95014932966558e-01
5.36000000  8.06549128512162e-01 1.93450871487839e-01
5.38000000  8.07790855069466e-01 1.92209144930534e-01
5.40000000  8.08709836861236e-01 1.91290163138764e-01
5.42000000  8.09306051960130e-01 1.90693948039871e-01
5.44000000  8.09579865268394e-01 1.90420134731607e-01
5.46000000  8.09532026948599e-01 1.90467973051402e-01
5.48000000  8.09163670375623e-01 1.90836329624377e-01
5.50000000  8.08476309613835e-01 1.91523690386166e-01
5.52000000  8.07471836424019e-01 1.92528163575981e-01
5.54000000  8.06152516805200e-01 1.93847483194800e-01
5.56000000  8.04520987077099e-01 1.95479012922902e-01
5.58000000  8.02580249509547e-01 1.97419750490453e-01
5.60000000  8.00333667505756e-01 1.99666332494244e-01
5.62000000  7.97784960346887e-01 2.02215039653113e-01
5.64000000  7.94938197505937e-01 2.05061802494063e-01
5.66000000  7.91797792539483e-01 2.08202207460517e-01
5.68000000  7.88368496566338e-01 2.11631503433662e-01
5.70000000  7.84655391342719e-01 2.15344608657281e-01
5.72000000  7.80663881943988e-01 2.19336118056012e-01
5.74000000  7.76399689063522e-01 2.23600310936478e-01
5.76000000  7.71868840939754e-01 2.28131159060245e-01
5.78000000  7.67077664922842e-01 2.32922335077158e-01
5.80000000  7.62032778692881e-01 2.37967221307119e-01
5.82000000  7.56741081141997e-01 2.43258918858002e-01
5.84000000  7.51209742933032e-01 2.48790257066968e-01
5.86000000  7.45446196747930e-01 2.54553803252069e-01
5.88000000  7.39458127239314e-01 2.60541872760686e-01
5.90000000  7.33253460699031e-01 2.66746539300969e-01
5.92000000  7.26840354457844e-01 2.73159645542156e-01
5.94000000  7.20227186030675e-01 2.79772813969325e-01
5.96000000  7.13422542022153e-01 2.86577457977847e-01
5.98000000  7.06435206807435e-01 2.93564793192565e-01
6.00000000  6.99274151003550e-01 3.00725848996450e-01
6.02000000  6.91948519746700e-01 3.08051480253300e-01
6.04000000  6.84467620791193e-01 3.15532379208807e-01
6.06000000  6.76840912445818e-01 3.23159087554181e-01
6.08000000  6.69077991363670e-01 3.30922008636330e-01
6.10000000  6.61188580201532e-01 3.38811419798468e-01
6.12000000  6.53182515165073e-01 3.46817484834927e-01
6.14000000  6.45069733456163e-01 3.54930266543836e-01
6.16000000  6.36860260638737e-01 3.63139739361262e-01
6.18000000  6.28564197939615e-01 3.71435802060385e-01
6.20000000  6.20191709500781e-01 3.79808290499219e-01
6.22000000  6.11753009599579e-01 3.88246990400421e-01
6.24000000  6.03258349853276e-01 3.96741650146724e-01
6.26000000  5.94718006424418e-01 4.05281993575581e-01
6.28000000  5.86142267243321e-01 4.13857732756678e-01
6.30000000  5.77541419263965e-01 4.22458580736034e-01
6.32000000  5.68925735769457e-01 4.31074264230543e-01
6.34000000  5.60305463743094e-01 4.39694536256906e-01
6.36000000  5.51690811320916e-01 4.48309188679083e-01
6.38000000  5.43091935341471e-01 4.56908064658529e-01
6.40000000  5.34518929008312e-01 4.65481070991688e-01
6.42000000  5.25981809680574e-01 4.74018190319425e-01
6.44000000  5.17490506806703e-01 4.82509493193296e-01
6.46000000  5.09054850016200e-01 4.90945149983800e-01
6.48000000  5.00684557383956e-01 4.99315442616044e-01
6.50000000  4.92389223881491e-01 5.07610776118509e-01
6.52000000  4.84178310029082e-01 5.15821689970918e-01
6.54000000  4.76061130762463e-01 5.23938869237536e-01
6.56000000  4.68046844527450e-01 5.31953155472549e-01
6.58000000  4.60144442615464e-01 5.39855557384535e-01
6.60000000  4.52362738752593e-01 5.47637261247406e-01
6.62000000  4.44710358954428e-01 5.55289641045571e-01
6.64000000  4.37195731658503e-01 5.62804268341497e-01
6.66000000  4.29827078145789e-01 5.70172921854210e-01
6.68000000  4.22612403262236e-01 5.77387596737764e-01
6.70000000  4.15559486450923e-01 5.84440513549077e-01
6.72000000  4.08675873104954e-01 5.91324126895045e-01
6.74000000  4.01968866250732e-01 5.98031133749267e-01
6.76000000  3.95445518570814e-01 6.04554481429185e-01
6.78000000  3.89112624775028e-01 6.10887375224971e-01
6.80000000  3.82976714328086e-01 6.17023285671914e-01
6.82000000  3.77044044541374e-01 6.22955955458626e-01
6.84000000  3.71320594036143e-01 6.28679405963856e-01
6.86000000  3.65812056584777e-01 6.34187943415222e-01
6.88000000  3.60523835336294e-01 6.39476164663705e-01
6.90000000  3.55461037431731e-01 6.44538962568269e-01
6.92000000  3.50628469014504e-01 6.49371530985496e-01
6.94000000  3.46030630640320e-01 6.53969369359680e-01
6.96000000  3.41671713090657e-01 6.58328286909343e-01
6.98000000  3.37555593593302e-01 6.62444406406697e-01
7.00000000  3.33685832452889e-01 6.66314167547111e-01
7.02000000  3.30065670093815e-01 6.69934329906184e-01
7.04000000  3.26698024517407e-01 6.73301975482593e-01
7.06000000  3.23585489174605e-01 6.76414510825395e-01
7.08000000  3.20730331254951e-01 6.79269668745048e-01
7.10000000  3.18134490392070e-01 6.81865509607930e-01
7.12000000  3.15799577785322e-01 6.84200422214677e-01
7.14000000  3.13726875736766e-01 6.86273124263233e-01
7.16000000  3.11917337602019e-01 6.88082662397980e-01
7.18000000  3.10371588153093e-01 6.89628411846906e-01
7.20000000  3.09089924350750e-01 6.90910075649250e-01
7.22000000  3.08072316523404e-01 6.91927683476596e-01
7.24000000  3.07318409949087e-01 6.92681590050912e-01
7.26000000  3.06827526836494e-01 6.93172473163505e-01
7.28000000  3.06598668700620e-01 6.93401331299379e-01
7.30000000  3.06630519128024e-01 6.93369480871975e-01
7.32000000  3.06921446926266e-01 6.93078553073734e-01
7.34000000  3.07469509651607e-01 6.92530490348393e-01
7.36000000  3.08272457508595e-01 6.91727542491404e-01
