#"time"      "diagonal of the density matrix"
0.00000000  1.00000000000000e+00 0.00000000000000e+00
0.02000000  9.99777915424207e-01 2.22084575792842e-04
0.04000000  9.99112175139621e-01 8.87824860378949e-04
0.06000000  9.98004066249014e-01 1.99593375098586e-03
0.08000000  9.96455395285810e-01 3.54460471418988e-03
0.10000000  9.94468485873424e-01 5.53151412657654e-03
0.12000000  9.92046175719958e-01 7.95382428004238e-03
0.14000000  9.89191812951960e-01 1.08081870480403e-02
0.16000000  9.85909251791833e-01 1.40907482081673e-02
0.18000000  9.82202847584405e-01 1.77971524155948e-02
0.20000000  9.78077451179046e-01 2.19225488209538e-02
0.22000000  9.73538402674601e-01 2.64615973253986e-02
0.24000000  9.68591524535293e-01 3.14084754647067e-02
0.26000000  9.63243114086598e-01 3.67568859134023e-02
0.28000000  9.57499935400954e-01 4.25000645990456e-02
0.30000000  9.51369210584011e-01 4.86307894159890e-02
0.32000000  9.44858610472920e-01 5.51413895270803e-02
0.34000000  9.37976244759017e-01 6.20237552409830e-02
0.36000000  9.30730651548004e-01 6.92693484519958e-02
0.38000000  9.23130786371522e-01 7.68692136284777e-02
0.40000000  9.15186010664765e-01 8.48139893352348e-02
0.42000000  9.06906079725512e-01 9.30939202744878e-02
0.44000000  8.98301130170669e-01 1.01698869829330e-01
0.46000000  8.89381666907102e-01 1.10618333092898e-01
0.48000000  8.80158549634203e-01 1.19841450365796e-01
0.50000000  8.70642978896289e-01 1.29357021103711e-01
0.52000000  8.60846481703526e-01 1.39153518296474e-01
0.54000000  8.50780896740681e-01 1.49219103259319e-01
0.56000000  8.40458359183565e-01 1.59541640816435e-01
0.58000000  8.29891285143546e-01 1.70108714856453e-01
0.60000000  8.19092355761049e-01 1.80907644238951e-01
0.62000000  8.08074500969404e-01 1.91925499030596e-01
0.64000000  7.96850882950884e-01 2.03149117049116e-01
0.66000000  7.85434879307153e-01 2.14565120692847e-01
0.68000000  7.73840065966759e-01 2.26159934033241e-01
0.70000000  7.62080199852649e-01 2.37919800147351e-01
0.72000000  7.50169201332999e-01 2.49830798667001e-01
0.74000000  7.38121136478934e-01 2.61878863521066e-01
0.76000000  7.25950199152990e-01 2.74049800847010e-01
0.78000000  7.13670692952362e-01 2.86329307047638e-01
0.80000000  7.01297013031182e-01 2.98702986968818e-01
0.82000000  6.88843627826215e-01 3.11156372173785e-01
0.84000000  6.76325060710493e-01 3.23674939289507e-01
0.86000000  6.63755871599462e-01 3.36244128400538e-01
0.88000000  6.51150638534293e-01 3.48849361465707e-01
0.90000000  6.38523939266996e-01 3.61476060733004e-01
0.92000000  6.25890332871964e-01 3.74109667128035e-01
0.94000000  6.13264341408530e-01 3.86735658591470e-01
0.96000000  6.00660431658984e-01 3.99339568341016e-01
0.98000000  5.88092996966432e-01 4.11907003033568e-01
1.00000000  5.75576339196657e-01 4.24423660803343e-01
1.02000000  5.63124650847991e-01 4.36875349152009e-01
1.04000000  5.50751997332952e-01 4.49248002667048e-01
1.06000000  5.38472299455145e-01 4.61527700544855e-01
1.08000000  5.26299316104637e-01 4.73700683895363e-01
1.10000000  5.14246627194671e-01 4.85753372805329e-01
1.12000000  5.02327616862246e-01 4.97672383137754e-01
1.14000000  4.90555456954668e-01 5.09444543045332e-01
1.16000000  4.78943090823791e-01 5.21056909176209e-01
1.18000000  4.67503217449176e-01 5.32496782550824e-01
1.20000000  4.56248275910945e-01 5.43751724089055e-01
1.22000000  4.45190430232569e-01 5.54809569767431e-01
1.24000000  4.34341554613318e-01 5.65658445386682e-01
1.26000000  4.23713219069498e-01 5.76286780930502e-01
1.28000000  4.13316675503044e-01 5.86683324496956e-01
1.30000000  4.03162844215394e-01 5.96837155784606e-01
1.32000000  3.93262300883933e-01 6.06737699116067e-01
1.34000000  3.83625264017637e-01 6.16374735982363e-01
1.36000000  3.74261582907841e-01 6.25738417092159e-01
1.38000000  3.65180726089366e-01 6.34819273910634e-01
1.40000000  3.56391770326490e-01 6.43608229673510e-01
1.42000000  3.47903390137499e-01 6.52096609862501e-01
1.44000000  3.39723847870813e-01 6.60276152129187e-01
1.46000000  3.31860984344846e-01 6.68139015655154e-01
1.48000000  3.24322210063010e-01 6.75677789936990e-01
1.50000000  3.17114497014419e-01 6.82885502985581e-01
1.52000000  3.10244371070043e-01 6.89755628929957e-01
1.54000000  3.03717904983198e-01 6.96282095016802e-01
1.56000000  2.97540712002442e-01 7.02459287997558e-01
1.58000000  2.91717940104027e-01 7.08282059895973e-01
1.60000000  2.86254266850255e-01 7.13745733149745e-01
1.62000000  2.81153894879149e-01 7.18846105120851e-01
1.64000000  2.76420548030005e-01 7.23579451969995e-01
1.66000000  2.72057468108477e-01 7.27942531891523e-01
1.68000000  2.68067412293982e-01 7.31932587706018e-01
1.70000000  2.64452651191294e-01 7.35547348808706e-01
1.72000000  2.61214967527310e-01 7.38785032472690e-01
1.74000000  2.58355655493099e-01 7.41644344506902e-01
1.76000000  2.55875520730405e-01 7.44124479269595e-01
1.78000000  2.53774880960956e-01 7.46225119039044e-01
1.80000000  2.52053567255977e-01 7.47946432744023e-01
1.82000000  2.50710925942478e-01 7.49289074057522e-01
1.84000000  2.49745821141998e-01 7.50254178858002e-01
1.86000000  2.49156637936631e-01 7.50843362063369e-01
1.88000000  2.48941286156294e-01 7.51058713843706e-01
1.90000000  2.49097204780382e-01 7.50902795219618e-01
1.92000000  2.49621366946094e-01 7.50378633053906e-01
1.94000000  2.50510285554936e-01 7.49489714445064e-01
1.96000000  2.51760019468058e-01 7.48239980531942e-01
1.98000000  2.53366180280354e-01 7.46633819719645e-01
2.00000000  2.55323939662431e-01 7.44676060337569e-01
2.02000000  2.57628037258828e-01 7.42371962741172e-01
2.04000000  2.60272789130143e-01 7.39727210869857e-01
2.06000000  2.63252096725988e-01 7.36747903274012e-01
2.08000000  2.66559456375015e-01 7.33440543624985e-01
2.10000000  2.70187969277584e-01 7.29812030722416e-01
2.12000000  2.74130351985993e-01 7.25869648014007e-01
2.14000000  2.78378947356570e-01 7.21621052643430e-01
2.16000000  2.82925735957322e-01 7.17074264042678e-01
2.18000000  2.87762347914259e-01 7.12237652085741e-01
2.20000000  2.92880075178978e-01 7.07119924821022e-01
2.22000000  2.98269884199541e-01 7.01730115800459e-01
2.24000000  3.03922428976219e-01 6.96077571023781e-01
2.26000000  3.09828064483176e-01 6.90171935516824e-01
2.28000000  3.15976860436743e-01 6.84023139563257e-01
2.30000000  3.22358615390531e-01 6.77641384609469e-01
2.32000000  3.28962871137231e-01 6.71037128862769e-01
2.34000000  3.35778927396601e-01 6.64221072603399e-01
2.36000000  3.42795856768850e-01 6.57204143231150e-01
2.38000000  3.50002519932287e-01 6.49997480067713e-01
2.40000000  3.57387581063898e-01 6.42612418936102e-01
2.42000000  3.64939523461239e-01 6.35060476538761e-01
2.44000000  3.72646665343884e-01 6.27353334656116e-01
2.46000000  3.80497175812452e-01 6.19502824187548e-01
2.48000000  3.88479090943153e-01 6.11520909056847e-01
2.50000000  3.96580329995650e-01 6.03419670004349e-01
2.52000000  4.04788711712002e-01 5.95211288287998e-01
2.54000000  4.13091970684378e-01 5.86908029315622e-01
2.56000000  4.21477773769272e-01 5.78522226230728e-01
2.58000000  4.29933736525914e-01 5.70066263474086e-01
2.60000000  4.38447439656705e-01 5.61552560343295e-01
2.62000000  4.47006445427510e-01 5.52993554572490e-01
2.64000000  4.55598314045839e-01 5.44401685954161e-01
2.66000000  4.64210619975040e-01 5.35789380024960e-01
2.68000000  4.72830968162835e-01 5.27169031837165e-01
2.70000000  4.81447010162736e-01 5.18552989837264e-01
2.72000000  4.90046460127111e-01 5.09953539872889e-01
2.74000000  4.98617110650954e-01 5.01382889349046e-01
2.76000000  5.07146848445678e-01 4.92853151554322e-01
2.78000000  5.15623669822621e-01 4.84376330177378e-01
2.80000000  5.24035695966262e-01 4.75964304033738e-01
2.82000000  5.32371187977549e-01 4.67628812022451e-01
2.84000000  5.40618561668141e-01 4.59381438331859e-01
2.86000000  5.48766402086786e-01 4.51233597913214e-01
2.88000000  5.56803477759525e-01 4.43196522240475e-01
2.90000000  5.64718754625877e-01 4.35281245374123e-01
2.92000000  5.72501409653669e-01 4.27498590346331e-01
2.94000000  5.80140844115695e-01 4.19859155884305e-01
2.96000000  5.87626696511929e-01 4.12373303488071e-01
2.98000000  5.94948855121589e-01 4.05051144878411e-01
3.00000000  6.02097470169918e-01 3.97902529830082e-01
3.02000000  6.09062965595167e-01 3.90937034404833e-01
3.04000000  6.15836050401875e-01 3.84163949598125e-01
3.06000000  6.22407729587167e-01 3.77592270412833e-01
3.08000000  6.28769314627469e-01 3.71230685372531e-01
3.10000000  6.34912433513671e-01 3.65087566486329e-01
3.12000000  6.40829040323478e-01 3.59170959676522e-01
3.14000000  6.46511424320352e-01 3.53488575679648e-01
3.16000000  6.51952218569179e-01 3.48047781430821e-01
3.18000000  6.57144408059484e-01 3.42855591940516e-01
3.20000000  6.62081337327742e-01 3.37918662672257e-01
3.22000000  6.66756717571083e-01 3.33243282428917e-01
3.24000000  6.71164633245388e-01 3.28835366754612e-01
3.26000000  6.75299548141560e-01 3.24700451858440e-01
3.28000000  6.79156310934452e-01 3.20843689065547e-01
3.30000000  6.82730160199728e-01 3.17269839800272e-01
3.32000000  6.86016728894649e-01 3.13983271105351e-01
3.34000000  6.89012048299566e-01 3.10987951700433e-01
3.36000000  6.91712551417618e-01 3.08287448582382e-01
3.38000000  6.94115075830908e-01 3.05884924169091e-01
3.40000000  6.96216866012190e-01 3.03783133987810e-01
3.42000000  6.98015575091816e-01 3.01984424908184e-01
3.44000000  6.99509266080472e-01 3.00490733919528e-01
3.46000000  7.00696412548941e-01 2.99303587451059e-01
3.48000000  7.01575898766885e-01 2.98424101233115e-01
3.50000000  7.02147019303347e-01 2.97852980696653e-01
3.52000000  7.02409478092405e-01 2.97590521907595e-01
3.54000000  7.02363386968108e-01 2.97636613031892e-01
3.56000000  7.02009263673529e-01 2.97990736326471e-01
3.58000000  7.01348029349439e-01 2.98651970650561e-01
3.60000000  7.00381005508819e-01 2.99618994491181e-01
3.62000000  6.99109910504039e-01 3.00890089495961e-01
3.64000000  6.97536855494220e-01 3.02463144505780e-01
3.66000000  6.95664339920908e-01 3.04335660079092e-01
3.68000000  6.93495246500821e-01 3.06504753499178e-01
3.70000000  6.91032835745011e-01 3.08967164254989e-01
3.72000000  6.88280740014385e-01 3.11719259985615e-01
3.74000000  6.85242957122104e-01 3.14757042877896e-01
3.76000000  6.81923843493885e-01 3.18076156506115e-01
3.78000000  6.78328106897823e-01 3.21671893102177e-01
3.80000000  6.74460798755800e-01 3.25539201244200e-01
3.82000000  6.70327306049077e-01 3.29672693950923e-01
3.84000000  6.65933342831124e-01 3.34066657168876e-01
3.86000000  6.61284941361169e-01 3.38715058638831e-01
3.88000000  6.56388442872411e-01 3.43611557127589e-01
3.90000000  6.51250487989210e-01 3.48749512010789e-01
3.92000000  6.45878006807968e-01 3.54121993192032e-01
3.94000000  6.40278208656759e-01 3.59721791343241e-01
3.96000000  6.34458571549121e-01 3.65541428450879e-01
3.98000000  6.28426831347696e-01 3.71573168652304e-01
4.00000000  6.22190970653734e-01 3.77809029346266e-01
4.02000000  6.15759207438707e-01 3.84240792561293e-01
4.04000000  6.09139983434526e-01 3.90860016565474e-01
4.06000000  6.02341952299070e-01 3.97658047700930e-01
4.08000000  5.95373967573925e-01 4.04626032426075e-01
4.10000000  5.88245070451384e-01 4.11754929548616e-01
4.12000000  5.80964477367911e-01 4.19035522632089e-01
4.14000000  5.73541567441374e-01 4.26458432558626e-01
4.16000000  5.65985869769452e-01 4.34014130230548e-01
4.18000000  5.58307050606676e-01 4.41692949393324e-01
4.20000000  5.50514900437605e-01 4.49485099562395e-01
4.22000000  5.42619320963662e-01 4.57380679036338e-01
4.24000000  5.34630312021135e-01 4.65369687978865e-01
4.26000000  5.26557958447824e-01 4.73442041552176e-01
4.28000000  5.18412416915741e-01 4.81587583084259e-01
4.30000000  5.10203902747222e-01 4.89796097252778e-01
4.32000000  5.01942676731669e-01 4.98057323268331e-01
4.34000000  4.93639031960045e-01 5.06360968039955e-01
4.36000000  4.85303280694062e-01 5.14696719305938e-01
4.38000000  4.76945741286883e-01 5.23054258713117e-01
4.40000000  4.68576725171898e-01 5.31423274828102e-01
4.42000000  4.60206523935989e-01 5.39793476064011e-01
4.44000000  4.51845396493403e-01 5.48154603506597e-01
4.46000000  4.43503556376151e-01 5.56496443623849e-01
4.48000000  4.35191159156538e-01 5.64808840843462e-01
4.50000000  4.26918290017147e-01 5.73081709982853e-01
4.52000000  4.18694951483304e-01 5.81305048516696e-01
4.54000000  4.10531051332691e-01 5.89468948667309e-01
4.56000000  4.02436390696456e-01 5.97563609303544e-01
4.58000000  3.94420652365786e-01 6.05579347634214e-01
4.60000000  3.86493389317536e-01 6.13506610682464e-01
4.62000000  3.78664013472123e-01 6.21335986527877e-01
4.64000000  3.70941784696449e-01 6.29058215303551e-01
4.66000000  3.63335800064254e-01 6.36664199935746e-01
4.68000000  3.55854983385792e-01 6.44145016614208e-01
4.70000000  3.48508075018343e-01 6.51491924981657e-01
4.72000000  3.41303621968553e-01 6.58696378031447e-01
4.74000000  3.34249968297177e-01 6.65750031702823e-01
4.76000000  3.27355245836278e-01 6.72644754163722e-01
4.78000000  3.20627365228457e-01 6.79372634771543e-01
4.80000000  3.14074007297217e-01 6.85925992702783e-01
4.82000000  3.07702614756996e-01 6.92297385243004e-01
4.84000000  3.01520384270967e-01 6.98479615729033e-01
4.86000000  2.95534258864117e-01 7.04465741135883e-01
4.88000000  2.89750920698630e-01 7.10249079301370e-01
4.90000000  2.84176784218064e-01 7.15823215781936e-01
4.92000000  2.78817989666256e-01 7.21182010333744e-01
4.94000000  2.73680396986395e-01 7.26319603013605e-01
4.96000000  2.68769580105118e-01 7.31230419894882e-01
4.98000000  2.64090821605979e-01 7.35909178394021e-01
5.00000000  2.59649107796080e-01 7.40350892203920e-01
5.02000000  2.55449124169131e-01 7.44550875830869e-01
5.04000000  2.51495251267640e-01 7.48504748732360e-01
5.06000000  2.47791560946423e-01 7.52208439053577e-01
5.08000000  2.44341813039083e-01 7.55658186960917e-01
5.10000000  2.41149452428548e-01 7.58850547571453e-01
5.12000000  2.38217606522271e-01 7.61782393477729e-01
5.14000000  2.35549083132145e-01 7.64450916867855e-01
5.16000000  2.33146368758661e-01 7.66853631241339e-01
5.18000000  2.31011627278355e-01 7.68988372721645e-01
5.20000000  2.29146699033042e-01 7.70853300966958e-01
5.22000000  2.27553100318879e-01 7.72446899681121e-01
5.24000000  2.26232023272763e-01 7.73767976727237e-01
5.26000000  2.25184336153132e-01 7.74815663846868e-01
5.28000000  2.24410584011713e-01 7.75589415988287e-01
5.30000000  2.23910989752353e-01 7.76089010247647e-01
5.32000000  2.23685455572548e-01 7.76314544427452e-01
5.34000000  2.23733564782914e-01 7.76266435217086e-01
5.36000000  2.24054583999331e-01 7.75945416000669e-01
5.38000000  2.24647465702147e-01 7.75352534297853e-01
5.40000000  2.25510851156354e-01 7.74489148843646e-01
5.42000000  2.26643073686290e-01 7.73356926313710e-01
5.44000000  2.28042162298025e-01 7.71957837701975e-01
5.46000000  2.29705845642204e-01 7.70294154357796e-01
5.48000000  2.31631556309784e-01 7.68368443690216e-01
5.50000000  2.33816435452741e-01 7.66183564547259e-01
5.52000000  2.36257337721490e-01 7.63742662278511e-01
5.54000000  2.38950836510464e-01 7.61049163489536e-01
5.56000000  2.41893229502979e-01 7.58106770497021e-01
5.58000000  2.45080544506216e-01 7.54919455493784e-01
5.60000000  2.48508545566917e-01 7.51491454433084e-01
5.62000000  2.52172739358090e-01 7.47827260641910e-01
5.64000000  2.56068381826813e-01 7.43931618173187e-01
5.66000000  2.60190485092968e-01 7.39809514907033e-01
5.68000000  2.64533824588563e-01 7.35466175411437e-01
5.70000000  2.69092946427078e-01 7.30907053572922e-01
5.72000000  2.73862174992094e-01 7.26137825007906e-01
5.74000000  2.78835620734318e-01 7.21164379265682e-01
5.76000000  2.84007188165958e-01 7.15992811834042e-01
5.78000000  2.89370584041263e-01 7.10629415958738e-01
5.80000000  2.94919325711951e-01 7.05080674288050e-01
5.82000000  3.00646749646124e-01 6.99353250353876e-01
5.84000000  3.06546020099197e-01 6.93453979900803e-01
5.86000000  3.12610137925300e-01 6.87389862074700e-01
5.88000000  3.18831949517548e-01 6.81168050482452e-01
5.90000000  3.25204155865561e-01 6.74795844134440e-01
5.92000000  3.31719321718551e-01 6.68280678281450e-01
5.94000000  3.38369884842334e-01 6.61630115157666e-01
5.96000000  3.45148165358593e-01 6.54851834641407e-01
5.98000000  3.52046375154754e-01 6.47953624845246e-01
6.00000000  3.59056627352883e-01 6.40943372647117e-01
6.02000000  3.66170945826043e-01 6.33829054173957e-01
6.04000000  3.73381274750615e-01 6.26618725249385e-01
6.06000000  3.80679488183187e-01 6.19320511816813e-01
6.08000000  3.88057399650668e-01 6.11942600349332e-01
6.10000000  3.95506771742423e-01 6.04493228257577e-01
6.12000000  4.03019325693311e-01 5.96980674306689e-01
6.14000000  4.10586750946657e-01 5.89413249053343e-01
6.16000000  4.18200714686310e-01 5.81799285313691e-01
6.18000000  4.25852871327110e-01 5.74147128672890e-01
6.20000000  4.33534871953231e-01 5.66465128046770e-01
6.22000000  4.41238373694040e-01 5.58761626305961e-01
6.24000000  4.48955049027319e-01 5.51044950972681e-01
6.26000000  4.56676594999857e-01 5.43323405000143e-01
6.28000000  4.64394742355638e-01 5.35605257644362e-01
6.30000000  4.72101264562067e-01 5.27898735437933e-01
6.32000000  4.79787986724891e-01 5.20212013275109e-01
6.34000000  4.87446794382689e-01 5.12553205617311e-01
6.36000000  4.95069642172065e-01 5.04930357827934e-01
6.38000000  5.02648562354902e-01 4.97351437645098e-01
6.40000000  5.10175673199291e-01 4.89824326800709e-01
6.42000000  5.17643187206014e-01 4.82356812793986e-01
6.44000000  5.25043419172720e-01 4.74956580827280e-01
6.46000000  5.32368794088184e-01 4.67631205911816e-01
6.48000000  5.39611854849355e-01 4.60388145150645e-01
6.50000000  5.46765269794124e-01 4.53234730205876e-01
6.52000000  5.53821840043086e-01 4.46178159956915e-01
6.54000000  5.60774506643800e-01 4.39225493356200e-01
6.56000000  5.67616357511394e-01 4.32383642488606e-01
6.58000000  5.74340634159610e-01 4.25659365840390e-01
6.60000000  5.80940738216722e-01 4.19059261783278e-01
6.62000000  5.87410237721032e-01 4.12589762278968e-01
6.64000000  5.93742873190965e-01 4.06257126809035e-01
6.66000000  5.99932563465068e-01 4.00067436534932e-01
6.68000000  6.05973411307558e-01 3.94026588692442e-01
6.70000000  6.11859708775325e-01 3.88140291224675e-01
6.72000000  6.17585942342637e-01 3.82414057657363e-01
6.74000000  6.23146797780072e-01 3.76853202219928e-01
6.76000000  6.28537164784528e-01 3.71462835215472e-01
6.78000000  6.33752141357458e-01 3.66247858642542e-01
6.80000000  6.38787037928762e-01 3.61212962071238e-01
6.82000000  6.43637381224112e-01 3.56362618775888e-01
6.84000000  6.48298917873728e-01 3.51701082126272e-01
6.86000000  6.52767617760985e-01 3.47232382239015e-01
6.88000000  6.57039677109456e-01 3.42960322890544e-01
6.90000000  6.61111521307354e-01 3.38888478692646e-01
6.92000000  6.64979807468586e-01 3.35020192531414e-01
6.94000000  6.68641426729911e-01 3.31358573270089e-01
6.96000000  6.72093506284025e-01 3.27906493715975e-01
6.98000000  6.75333411148611e-01 3.24666588851389e-01
7.00000000  6.78358745671716e-01 3.21641254328284e-01
7.02000000  6.81167354774061e-01 3.18832645225939e-01
7.04000000  6.83757324929173e-01 3.16242675070827e-01
7.06000000  6.86126984882460e-01 3.13873015117540e-01
7.08000000  6.88274906110652e-01 3.11725093889348e-01
7.10000000  6.90199903023230e-01 3.09800096976770e-01
7.12000000  6.91901032907756e-01 3.08098967092243e-01
7.14000000  6.93377595621224e-01 3.06622404378775e-01
7.16000000  6.94629133029806e-01 3.05370866970194e-01
7.18000000  6.95655428199587e-01 3.04344571800413e-01
7.20000000  6.96456504341116e-01 3.03543495658884e-01
7.22000000  6.97032623510797e-01 3.02967376489202e-01
7.24000000  6.97384285072381e-01 3.02615714927619e-01
7.26000000  6.97512223921997e-01 3.02487776078003e-01
7.28000000  6.97417408480390e-01 3.02582591519610e-01
7.30000000  6.97101038456193e-01 3.02898961543807e-01
7.32000000  6.96564542384272e-01 3.03435457615728e-01
7.34000000  6.95809574943343e-01 3.04190425056656e-01
7.36000000  6.94838014057253e-01 3.05161985942747e-01
