#"time"         "p(t) (rotating)"          "q(t) (rotating)"         "f(t) (labframe)"
 0.00000000    1.50000000000000e-02    1.50000000000000e-02    3.00000000000000e-02 
 0.10000000    1.59592441627651e-02    1.39210825588045e-02   -3.49282448436363e-02 
 0.20000000    1.67845195873374e-02    1.27388627981699e-02    3.85302051606624e-02 
 0.30000000    1.74638728011238e-02    1.14714804523177e-02   -4.06602181877001e-02 
 0.40000000    1.79879133199669e-02    1.01385031205693e-02    4.12472419471460e-02 
 0.50000000    1.83499848160863e-02    8.76055789971783e-03   -4.02980801425684e-02 
 0.60000000    1.85462830966068e-02    7.35894283208317e-03    3.78960685368161e-02 
 0.70000000    1.85759185939755e-02    5.95522584196254e-03   -3.41953291622163e-02 
 0.80000000    1.84409221726721e-02    4.57083907971918e-03    2.94109737898321e-02 
 0.90000000    1.81461941834011e-02    3.22667668138166e-03   -2.38058879970951e-02 
 1.00000000    1.76993978239359e-02    1.94270388058619e-03    1.76749359525957e-02 
 1.10000000    1.71107989724265e-02    7.37585180421291e-04   -1.13275804123740e-02 
 1.20000000    1.63930557222011e-02   -3.71661090182908e-04    5.07000267932074e-03 
 1.30000000    1.55609618456628e-02   -1.36997503977645e-03    8.12172115203605e-04 
 1.40000000    1.46311493288617e-02   -2.24452816598042e-03   -6.06948908731268e-03 
 1.50000000    1.36217559294865e-02   -2.98495165032811e-03    1.05016788063534e-02 
 1.60000000    1.25520644031618e-02   -3.58351554416116e-03   -1.39673116124734e-02 
 1.70000000    1.14421206022686e-02   -4.03525537476116e-03    1.63895526051554e-02 
 1.80000000    1.03123380668604e-02   -4.33804375121139e-03   -1.77577350218469e-02 
 1.90000000    9.18309699036113e-03   -4.49260564774447e-03    1.81247416254641e-02 
 2.00000000    8.07434554835941e-03   -4.50247716659095e-03   -1.76004535663149e-02 
 2.10000000    7.00521152488951e-03   -4.37390871013732e-03    1.63417764048386e-02 
 2.20000000    5.99363195819805e-03   -4.11571460099256e-03   -1.45399673749197e-02 
 2.30000000    5.05600816142279e-03   -3.73907225619893e-03    1.24061527621028e-02 
 2.40000000    4.20689296020030e-03   -3.25727502697438e-03   -1.01560290224911e-02 
 2.50000000    3.45871633926244e-03   -2.68544373796359e-03    7.99477953433556e-03 
 2.60000000    2.82155491659138e-03   -2.04020278157419e-03   -6.10320862551405e-03 
 2.70000000    2.30294978216379e-03   -1.33932732717851e-03    4.62599825690758e-03 
 2.80000000    1.90777626636759e-03   -6.01368777709223e-04   -3.66283731419720e-03 
 2.90000000    1.63816816026848e-03    1.54733963959083e-04    3.26296960061133e-03 
 3.00000000    1.49349781690275e-03    9.10049578045039e-04   -3.42346822104217e-03 
 3.10000000    1.47041244154323e-03    1.64604779811144e-03    4.09128722242881e-03 
 3.20000000    1.56292575185452e-03    2.34498334433416e-03   -5.16888337777536e-03 
 3.30000000    1.76256307856518e-03    2.99026259221912e-03    6.52295914608902e-03 
 3.40000000    2.05855690594351e-03    3.56678560049547e-03   -7.99566823790896e-03 
 3.50000000    2.43808884039861e-03    4.06125662083588e-03    9.41746178218917e-03 
 3.60000000    2.88657306515563e-03    4.46245684860349e-03   -1.06206466070029e-02 
 3.70000000    3.38797550778054e-03    4.76147393525163e-03    1.14526845505271e-02 
 3.80000000    3.92516223197660e-03    4.95188365405953e-03   -1.17882856470902e-02 
 3.90000000    4.48026997984579e-03    5.02988007413843e-03    1.15394366551505e-02 
 4.00000000    5.03509134740601e-03    4.99435163380656e-03   -1.06626535409659e-02 
 4.10000000    5.57146678344542e-03    4.84690159276967e-03    9.16294211385835e-03 
 4.20000000    6.07167546562791e-03    4.59181246127565e-03   -7.09418169444474e-03 
 4.30000000    6.51881713086189e-03    4.23595513114769e-03    4.55589680546432e-03 
 4.40000000    6.89717711884247e-03    3.78864454579219e-03   -1.68663442629738e-03 
 4.50000000    7.19256722473501e-03    3.26144482166690e-03   -1.34559779563924e-03 
 4.60000000    7.39263544244279e-03    2.66792775076032e-03    4.35516998977846e-03 
 4.70000000    7.48713830408210e-03    2.02338955201939e-03   -7.15212073559711e-03 
 4.80000000    7.46817027168807e-03    1.34453158058565e-03    9.55596953255726e-03 
 4.90000000    7.33034549878502e-03    6.49111430328596e-04   -1.14090780011254e-02 
 5.00000000    7.07092823504068e-03   -4.44285370521827e-05    1.25886105684333e-02 
 5.10000000    6.68990917767077e-03   -7.17347746116976e-04   -1.30162342886244e-02 
 5.20000000    6.19002615795600e-03   -1.35100124773539e-03    1.26648456697308e-02 
 5.30000000    5.57672866848074e-03   -1.92723289699985e-03   -1.15618101744517e-02 
 5.40000000    4.85808686415071e-03   -2.42875992921232e-03    9.78843432253106e-03 
 5.50000000    4.04464678514161e-03   -2.83954116147896e-03   -7.47564544825426e-03 
 5.60000000    3.14923463036168e-03   -3.14512137046686e-03    4.79611310211446e-03 
 5.70000000    2.18671393416246e-03   -3.33294486915181e-03   -1.95329145128844e-03 
 5.80000000    1.17370044640804e-03   -3.39263191749068e-03   -8.31922717983702e-04 
 5.90000000    1.28240367656177e-04   -3.31621234166625e-03    3.33605127295408e-03 
 6.00000000   -9.30541669934717e-04   -3.09831158910323e-03   -5.34843606491565e-03 
 6.10000000   -1.98281787407240e-03   -2.73628539481151e-03    6.68615143145033e-03 
 6.20000000   -3.00844834280452e-03   -2.23030025982999e-03   -7.20741749440580e-03 
 6.30000000   -3.98738009843563e-03   -1.58335802413719e-03    6.82258981659245e-03 
 6.40000000   -4.90004614286259e-03   -8.01263932750311e-04   -5.50194912454918e-03 
 6.50000000   -5.72775656493490e-03    1.07461277457471e-04    3.27971578896938e-03 
 6.60000000   -6.45307388234155e-03    1.13172362399020e-03   -2.53954675139547e-04 
 6.70000000   -7.06016510867985e-03    2.25804972554763e-03   -3.41769876870698e-03 
 6.80000000   -7.53512349463963e-03    3.47082848490949e-03    7.52628800743122e-03 
 6.90000000   -7.86625349150656e-03    4.75259588612201e-03   -1.18232957844526e-02 
 7.00000000   -8.04431321350088e-03    6.08435732092955e-03    1.60352170784232e-02 
 7.10000000   -8.06270951828981e-03    7.44594110730940e-03   -1.98800562274437e-02 
 7.20000000   -7.91764176552520e-03    8.81637623713515e-03    2.30847257355052e-02 
 7.30000000   -7.60819133268850e-03    1.01742869029303e-02   -2.54022553474042e-02 
 7.40000000   -7.13635504552163e-03    1.14982960151260e-02    2.66277210124479e-02 
 7.50000000   -6.50702179536231e-03    1.27674297379843e-02   -2.66118746357555e-02 
 7.60000000   -5.72789274552266e-03    1.39615150480687e-02    2.52715927439141e-02 
 7.70000000   -4.80934665088861e-03    1.50615624543347e-02   -2.25964567676950e-02 
 7.80000000   -3.76425290677107e-03    1.60501263108952e-02    1.86510172139032e-02 
 7.90000000   -2.60773598290320e-03    1.69116355964660e-02   -1.35725632530694e-02 
 8.00000000   -1.35689586558588e-03    1.76326886195775e-02    7.56450092227932e-03 
 8.10000000   -3.04900060249287e-05    1.82023058241923e-02   -8.85719129486080e-04 
 8.20000000    1.35141696159772e-03    1.86121357020885e-02   -6.16342481308355e-03 
 8.30000000    2.76782882810301e-03    1.88566097496796e-02    1.32576555634421e-02 
 8.40000000    4.19721133607422e-03    1.89330434192312e-02   -2.00648620395466e-02 
 8.50000000    5.61789586273289e-03    1.88416810875089e-02    2.62646118545529e-02 
 8.60000000    7.00848529562805e-03    1.85856841773145e-02   -3.15659721306527e-02 
 8.70000000    8.34825409595042e-03    1.81710626969413e-02    3.57235563162327e-02 
 8.80000000    9.61753466198235e-03    1.76065515867425e-02   -3.85508304007495e-02 
 8.90000000    1.07980823801203e-02    1.69034343583202e-02    3.99298866375328e-02 
 9.00000000    1.18734121775566e-02    1.60753175584261e-02   -3.98171171828941e-02 
 9.10000000    1.28290999605556e-02    1.51378605656130e-02    3.82444793888287e-02 
 9.20000000    1.36530430239105e-02    1.41084661135238e-02   -3.53163220603415e-02 
 9.30000000    1.43356743365997e-02    1.30059377127633e-02    3.12020198836458e-02 
 9.40000000    1.48701265294976e-02    1.18501107980446e-02   -2.61249235584410e-02 
 9.50000000    1.52523424148372e-02    1.06614649456827e-02    2.03483592362262e-02 
 9.60000000    1.54811299339030e-02    9.46072487817769e-03   -1.41595882734636e-02 
 9.70000000    1.55581605378475e-02    8.26845819019569e-03    7.85275586992998e-03 
 9.80000000    1.54879111344205e-02    7.10467778938980e-03   -1.71190763766220e-03 
 9.90000000    1.52775508582459e-02    5.98845694505020e-03   -4.00486630314209e-03 
 10.00000000    1.49367750216023e-02    4.93756457956416e-03    9.07918773972630e-03 
 10.10000000    1.44775896545121e-02    3.96812802728428e-03   -1.33432249683433e-02 
 10.20000000    1.39140510262893e-02    3.09432993087300e-03    1.66869846824580e-02 
 10.30000000    1.32619654359290e-02    2.32814525761671e-03   -1.90616799120135e-02 
 10.40000000    1.25385553479345e-02    1.67912361135099e-03    2.04790546875955e-02 
 10.50000000    1.17620986176465e-02    1.15422110565318e-03   -2.10068128874603e-02 
 10.60000000    1.09515480825119e-02    7.57685069049123e-04    2.07605527839715e-02 
 10.70000000    1.01261391824189e-02    4.90993793049506e-04   -1.98928334697886e-02 
 10.80000000    9.30499350549220e-03    3.52852430079893e-04    1.85801799723484e-02 
 10.90000000    8.50672623097893e-03    3.39245022872414e-04   -1.70089588054367e-02 
 11.00000000    7.74906535655563e-03    4.43541522156422e-04    1.53611170554533e-02 
 11.10000000    7.04849035528262e-03    6.56657548010969e-04   -1.38007722137024e-02 
 11.20000000    6.41989751237185e-03    9.67263594050635e-04    1.24625676883780e-02 
 11.30000000    5.87629865185157e-03    1.36203938382639e-03   -1.14425755221717e-02 
 11.40000000    5.42855928892391e-03    1.82596818522469e-03    1.07923426198288e-02 
 11.50000000    5.08518144882416e-03    2.34266508930699e-03   -1.05164524950346e-02 
 11.60000000    4.85213549322295e-03    2.89473258092810e-03    1.05737264856089e-02 
 11.70000000    4.73274430867521e-03    3.46413618317891e-03   -1.08819334096537e-02 
 11.80000000    4.72762215805979e-03    4.03259255711813e-03    1.13256320074057e-02 
 11.90000000    4.83466939645696e-03    4.58196219039020e-03   -1.17665527606524e-02 
 12.00000000    5.04912312948212e-03    5.09463871812450e-03    1.20557494901440e-02 
 12.10000000    5.36366276721412e-03    5.55392698877057e-03   -1.20466283690430e-02 
 12.20000000    5.76856832303718e-03    5.94440221485325e-03    1.16079009155815e-02 
 12.30000000    6.25192824604528e-03    6.25224292947767e-03   -1.06355122405337e-02 
 12.40000000    6.79989257936274e-03    6.46553099615283e-03    9.06266599365616e-03 
 12.50000000    7.39696632475401e-03    6.57451258159381e-03   -6.86719833871738e-03 
 12.60000000    8.02633708448108e-03    6.57181478535826e-03    4.07573605831783e-03 
 12.70000000    8.67023036071995e-03    6.45261351078202e-03   -7.64296214379548e-04 
 12.80000000    9.31028533479550e-03    6.21474914088474e-03   -2.94476834459007e-03 
 12.90000000    9.92794353421060e-03    5.85878763112579e-03    6.88931862301874e-03 
 13.00000000    1.05048425332316e-02    5.38802572713596e-03   -1.08770699463882e-02 
 13.10000000    1.10232067279084e-02    4.80844013789532e-03    1.46976996962381e-02 
 13.20000000    1.14662272809636e-02    4.12858162081946e-03   -1.81366205351430e-02 
 13.30000000    1.18184235449107e-02    3.35941604232461e-03    2.09894924108803e-02 
 13.40000000    1.20659786388112e-02    2.51411554351495e-03   -2.30764836980763e-02 
 13.50000000    1.21970423679303e-02    1.60780394433853e-03    2.42552955068990e-02 
 13.60000000    1.22019953259448e-02    6.57261440805128e-04   -2.44320336215779e-02 
 13.70000000    1.20736687932963e-02   -3.19405529789947e-04    2.35691454231466e-02 
 13.80000000    1.18075159273174e-02   -1.30312267766249e-03   -2.16898260075259e-02 
 13.90000000    1.14017307122483e-02   -2.27422735375070e-03    1.88785264004675e-02 
 14.00000000    1.08573121807916e-02   -3.21286156895756e-03   -1.52774523198761e-02 
 14.10000000    1.01780725125484e-02   -4.09937068371125e-03    1.10792075095526e-02 
 14.20000000    9.37058873669536e-03   -4.91469979182277e-03   -6.51599368356062e-03 
 14.30000000    8.44409889416336e-03   -5.64077986176541e-03    1.84601240797515e-03 
 14.40000000    7.41034462581683e-03   -6.26089589634351e-03    2.66209281120667e-03 
 14.50000000    6.28336322549963e-03   -6.76002972433229e-03   -6.74577639691406e-03 
 14.60000000    5.07923320885856e-03   -7.12517053803383e-03    1.01650580643672e-02 
 14.70000000    3.81577838035031e-03   -7.34558692883227e-03   -1.27178550014512e-02 
 14.80000000    2.51223621314877e-03   -7.41305493601500e-03    1.42531773735546e-02 
 14.90000000    1.18889707315414e-03   -7.32203749712543e-03   -1.46813126789332e-02 
 15.00000000   -1.33278595375512e-04   -7.06981165350357e-03    1.39803094295297e-02 
 15.10000000   -1.43305756062400e-03   -6.65654090317899e-03   -1.21983017768491e-02 
 15.20000000   -2.68933771487226e-03   -6.08529118417227e-03    9.45147923620654e-03 
 15.30000000   -3.88155061448398e-03   -5.36199009275266e-03   -5.91778266891091e-03 
 15.40000000   -4.99005467818294e-03   -4.49533007089575e-03    1.82668123712514e-03 
 15.50000000   -5.99651125507707e-03   -3.49661741252380e-03    2.55436260927539e-03 
 15.60000000   -6.88423611077581e-03   -2.37957001681810e-03   -6.93591835393908e-03 
 15.70000000   -7.63851936552679e-03   -1.16006783742338e-03    1.10241180568598e-02 
 15.80000000   -8.24690754288119e-03    1.44139081665931e-04   -1.45386069851575e-02 
 15.90000000   -8.69944213852314e-03    1.51375924814990e-03    1.72297972070471e-02 
 16.00000000   -8.98884998158000e-03    2.92831857565751e-03   -1.88943467947588e-02 
 16.10000000   -9.11068161774726e-03    4.36654238290781e-03    1.93878958002686e-02 
 16.20000000   -9.06339497581187e-03    5.80675300985586e-03   -1.86342606518132e-02 
 16.30000000   -8.84838266603529e-03    7.22727521224968e-03    1.66305101657448e-02 
 16.40000000   -8.46994237866339e-03    8.60684134163682e-03   -1.34476047597301e-02 
 16.50000000   -7.93519098121013e-03    9.92498832280748e-03    9.22655908342108e-03 
 16.60000000   -7.25392403154822e-03    1.11624386048303e-02   -4.17036923766169e-03 
 16.70000000   -6.43842350790585e-03    1.23014575819578e-02   -1.46778902150236e-03 
 16.80000000   -5.50321758497366e-03    1.33261804503443e-02    7.39935222194997e-03 
 16.90000000   -4.46479723694703e-03    1.42229020763491e-02   -1.33172275375698e-02 
 17.00000000   -3.34129530447283e-03    1.49803241900055e-02    1.89136684014348e-02 
 17.10000000   -2.15213440604882e-03    1.55897550682796e-02   -2.38980600417960e-02 
 17.20000000   -9.17650690606471e-04    1.60452578200215e-02    2.80135202697259e-02 
 17.30000000    3.41299095505147e-04    1.63437444090967e-02   -3.10513032354525e-02 
 17.40000000    1.60373942661166e-03    1.64850136336122e-02    3.28621403858907e-02 
 17.50000000    2.84897872876834e-03    1.64717323958138e-02   -3.33638537484634e-02 
 17.60000000    4.05700503918016e-03    1.63093607268248e-02    3.25448186870363e-02 
 17.70000000    5.20886675624760e-03    1.60060221503576e-02   -3.04631205499782e-02 
 17.80000000    6.28703094574062e-03    1.55723220574890e-02    2.72415247035636e-02 
 17.90000000    7.27571212214207e-03    1.50211177988209e-02   -2.30586444274062e-02 
 18.00000000    8.16116501896004e-03    1.43672451601968e-02    1.81369288922437e-02 
 18.10000000    8.93193558587378e-03    1.36272067544436e-02   -1.27282886534132e-02 
 18.20000000    9.57906528946335e-03    1.28188286170718e-02    7.09831634136365e-03 
 18.30000000    1.00962447311971e-02    1.19608919234041e-02   -1.51013674188907e-03 
 18.40000000    1.04799136125664e-02    1.10727472356708e-02   -3.79107131260101e-03 
 18.50000000    1.07293051524489e-02    1.01739190313989e-02    8.59189890819184e-03 
 18.60000000    1.08464341744336e-02    9.28370845212516e-03   -1.27220184838530e-02 
 18.70000000    1.08360292097230e-02    8.42080224033665e-03    1.60623035021205e-02 
 18.80000000    1.07054100817672e-02    7.60289570204897e-03   -1.85492992372302e-02 
 18.90000000    1.04643135295944e-02    6.84633724519882e-03    2.01758376087130e-02 
 19.00000000    1.01246704660674e-02    6.16580160582608e-03   -2.09878501640976e-02 
 19.10000000    9.70033943424044e-03    5.57399829363790e-03    2.10776881589821e-02 
 19.20000000    9.20680170028829e-03    5.08142107760815e-03   -2.05744902378858e-02 
 19.30000000    8.66082418763866e-03    4.69614350501230e-03    1.96323311531509e-02 
 19.40000000    8.08009709863773e-03    4.42366452028883e-03   -1.84170265794141e-02 
 19.50000000    7.48285357451037e-03    4.26680724191378e-03    1.70925501714673e-02 
 19.60000000    6.88747910144826e-03    4.22567288625016e-03   -1.58080344379964e-02 
 19.70000000    6.31211857325597e-03    4.29765071849070e-03    1.46862760398553e-02 
 19.80000000    5.77428896505446e-03    4.47748378453687e-03   -1.38145524977784e-02 
 19.90000000    5.29050545722308e-03    4.75738905648967e-03    1.32383889337023e-02 
 20.00000000    4.87592857636681e-03    5.12722953080019e-03   -1.29587019533554e-02 
 20.10000000    4.54403949608532e-03    5.57473477392619e-03    1.29325075663559e-02 
 20.20000000    4.30635007318582e-03    6.08576543645717e-03   -1.30771275042771e-02 
 20.30000000    4.17215349607528e-03    6.64461637259346e-03    1.32775806212225e-02 
 20.40000000    4.14832060537582e-03    7.23435222528720e-03   -1.33966200928946e-02 
 20.50000000    4.23914602867605e-03    7.83716868381344e-03    1.32866882527799e-02 
 20.60000000    4.44624727013099e-03    8.43477210312470e-03   -1.28029220081581e-02 
 20.70000000    4.76851883138897e-03    9.00876980340374e-03    1.18162623969187e-02 
 20.80000000    5.20214233435041e-03    9.54106315120487e-03   -1.02257075140370e-02 
 20.90000000    5.74065249067970e-03    1.00142354648089e-02    7.96879991687053e-03 
 21.00000000    6.37505764032123e-03    1.04119268871021e-02   -5.02955441890861e-03 
 21.10000000    7.09401248397962e-03    1.07191886274231e-02    1.44320236769313e-03 
 21.20000000    7.88403958456865e-03    1.09228093842501e-02    2.70265720674861e-03 
 21.30000000    8.72979523103071e-03    1.10116073151355e-02   -7.27066507184087e-03 
 21.40000000    9.61437436432075e-03    1.09766816078446e-02    1.20799757952450e-02 
 21.50000000    1.05196484776290e-02    1.08116185135010e-02   -1.69158523729330e-02 
 21.60000000    1.14266297368549e-02    1.05126476125352e-02    2.15420027244186e-02 
 21.70000000    1.23158540362816e-02    1.00787450792071e-02   -2.57148831629885e-02 
 21.80000000    1.31677753189822e-02    9.51168177052820e-03    2.91990479551294e-02 
 21.90000000    1.39631632594378e-02    8.81601506935334e-03   -3.17825383648861e-02 
 22.00000000    1.46834963318434e-02    7.99902453718460e-03    3.32912853046926e-02 
 22.10000000    1.53113423731094e-02    7.07059255730897e-03   -3.36015486660438e-02 
 22.20000000    1.58307189929658e-02    6.04303225079651e-03    3.26495308415452e-02 
 22.30000000    1.62274265799959e-02    4.93086600456728e-03   -3.04374747783868e-02 
 22.40000000    1.64893471939674e-02    3.75055894107511e-03    2.70357771246878e-02 
 22.50000000    1.66067033106993e-02    2.52021256333577e-03   -2.25809004576683e-02 
 22.60000000    1.65722711824039e-02    1.25922460896639e-03    1.72691387664543e-02 
 22.70000000    1.63815444780891e-02   -1.20781734050705e-05   -1.13465596660418e-02 
 22.80000000    1.60328448571816e-02   -1.27282706616063e-03    5.09569757814771e-03 
 22.90000000    1.55273771853055e-02   -2.50201058287994e-03    1.18021220094872e-03 
 23.00000000    1.48692282030423e-02   -3.67887791818234e-03   -7.17450232131494e-03 
 23.10000000    1.40653085844873e-02   -4.78333864825975e-03    1.25947830742035e-02 
