#"time"      "diagonal of the density matrix"
0.00000000  5.00000000000000e-01 5.00000000000000e-01
0.10000000  5.00011277157015e-01 4.99988722842985e-01
0.20000000  5.00105623050787e-01 4.99894376949213e-01
0.30000000  5.00366091575667e-01 4.99633908424333e-01
0.40000000  5.00875718380429e-01 4.99124281619572e-01
0.50000000  5.01717507560272e-01 4.98282492439728e-01
0.60000000  5.02926138552901e-01 4.97073861447099e-01
0.70000000  5.04426089128322e-01 4.95573910871678e-01
0.80000000  5.06137478670681e-01 4.93862521329319e-01
0.90000000  5.07980404877408e-01 4.92019595122592e-01
1.00000000  5.09875090879246e-01 4.90124909120755e-01
1.10000000  5.11784211524991e-01 4.88215788475009e-01
1.20000000  5.13706637098133e-01 4.86293362901867e-01
1.30000000  5.15641242836998e-01 4.84358757163002e-01
1.40000000  5.17586909665305e-01 4.82413090334695e-01
1.50000000  5.19542506918655e-01 4.80457493081345e-01
1.60000000  5.21506644928543e-01 4.78493355071457e-01
1.70000000  5.23477853144849e-01 4.76522146855152e-01
1.80000000  5.25454669253150e-01 4.74545330746850e-01
1.90000000  5.27435639831770e-01 4.72564360168230e-01
2.00000000  5.29419317530646e-01 4.70580682469354e-01
2.10000000  5.31404249853549e-01 4.68595750146451e-01
2.20000000  5.33388993066028e-01 4.66611006933972e-01
2.30000000  5.35372114532306e-01 4.64627885467694e-01
2.40000000  5.37352193234883e-01 4.62647806765117e-01
2.50000000  5.39327733510743e-01 4.60672266489257e-01
2.60000000  5.41297101406782e-01 4.58702898593218e-01
2.70000000  5.43258671595666e-01 4.56741328404334e-01
2.80000000  5.45210830303169e-01 4.54789169696832e-01
2.90000000  5.47151977329153e-01 4.52848022670847e-01
3.00000000  5.49080668836415e-01 4.50919331163585e-01
3.10000000  5.50995565898588e-01 4.49004434101412e-01
3.20000000  5.52895343352072e-01 4.47104656647928e-01
3.30000000  5.54778689985969e-01 4.45221310014031e-01
3.40000000  5.56644310694080e-01 4.43355689305920e-01
3.50000000  5.58490943688024e-01 4.41509056311976e-01
3.60000000  5.60317345845722e-01 4.39682654154278e-01
3.70000000  5.62122287870600e-01 4.37877712129400e-01
3.80000000  5.63904554270673e-01 4.36095445729328e-01
3.90000000  5.65662944529233e-01 4.34337055470767e-01
4.00000000  5.67396275497414e-01 4.32603724502586e-01
4.10000000  5.69103377029997e-01 4.30896622970003e-01
4.20000000  5.70783091454048e-01 4.29216908545952e-01
4.30000000  5.72434273347666e-01 4.27565726652334e-01
4.40000000  5.74055735279839e-01 4.25944264720161e-01
4.50000000  5.75646230668290e-01 4.24353769331710e-01
4.60000000  5.77204522444612e-01 4.22795477555388e-01
4.70000000  5.78729382985563e-01 4.21270617014437e-01
4.80000000  5.80219600280721e-01 4.19780399719279e-01
4.90000000  5.81674181961970e-01 4.18325818038030e-01
5.00000000  5.83092246116295e-01 4.16907753883705e-01
5.10000000  5.84472919749777e-01 4.15527080250223e-01
5.20000000  5.85815338291948e-01 4.14184661708052e-01
5.30000000  5.87118655025328e-01 4.12881344974672e-01
5.40000000  5.88382097010279e-01 4.11617902989721e-01
5.50000000  5.89604909738297e-01 4.10395090261702e-01
5.60000000  5.90786344154361e-01 4.09213655845639e-01
5.70000000  5.91925656071844e-01 4.08074343928156e-01
5.80000000  5.93022075388543e-01 4.06977924611456e-01
5.90000000  5.94074759456896e-01 4.05925240543104e-01
6.00000000  5.95082863545483e-01 4.04917136454516e-01
6.10000000  5.96045543834910e-01 4.03954456165089e-01
6.20000000  5.96961956844245e-01 4.03038043155755e-01
6.30000000  5.97831324624171e-01 4.02168675375829e-01
6.40000000  5.98652930632467e-01 4.01347069367533e-01
6.50000000  5.99426056727166e-01 4.00573943272834e-01
6.60000000  6.00149982590330e-01 3.99850017409670e-01
6.70000000  6.00823995642808e-01 3.99176004357192e-01
6.80000000  6.01447563186549e-01 3.98552436813451e-01
6.90000000  6.02020215544109e-01 3.97979784455891e-01
7.00000000  6.02541478727038e-01 3.97458521272962e-01
7.10000000  6.03010873909698e-01 3.96989126090302e-01
7.20000000  6.03427939785905e-01 3.96572060214095e-01
7.30000000  6.03792320370437e-01 3.96207679629563e-01
7.40000000  6.04103667766865e-01 3.95896332233135e-01
7.50000000  6.04361626915099e-01 3.95638373084901e-01
7.60000000  6.04565835197222e-01 3.95434164802778e-01
7.70000000  6.04715835591327e-01 3.95284164408673e-01
7.80000000  6.04810998086282e-01 3.95189001913718e-01
7.90000000  6.04850679004403e-01 3.95149320995597e-01
8.00000000  6.04834224686492e-01 3.95165775313508e-01
8.10000000  6.04760973045963e-01 3.95239026954037e-01
8.20000000  6.04630482797490e-01 3.95369517202509e-01
8.30000000  6.04442464312997e-01 3.95557535687003e-01
8.40000000  6.04196617883974e-01 3.95803382116026e-01
8.50000000  6.03892633634316e-01 3.96107366365684e-01
8.60000000  6.03530201677770e-01 3.96469798322230e-01
8.70000000  6.03109114182964e-01 3.96890885817036e-01
8.80000000  6.02629184007058e-01 3.97370815992941e-01
8.90000000  6.02090213815381e-01 3.97909786184619e-01
9.00000000  6.01491996197569e-01 3.98508003802431e-01
9.10000000  6.00834334644415e-01 3.99165665355585e-01
9.20000000  6.00117098464016e-01 3.99882901535984e-01
9.30000000  5.99340154305716e-01 4.00659845694284e-01
9.40000000  5.98503359572167e-01 4.01496640427833e-01
9.50000000  5.97606562733548e-01 4.02393437266452e-01
9.60000000  5.96649496361483e-01 4.03350503638517e-01
9.70000000  5.95631731170586e-01 4.04368268829414e-01
9.80000000  5.94552828338744e-01 4.05447171661256e-01
9.90000000  5.93412341126677e-01 4.06587658873323e-01
10.00000000  5.92209823475826e-01 4.07790176524174e-01
10.10000000  5.90945162066356e-01 4.09054837933644e-01
10.20000000  5.89618416885517e-01 4.10381583114483e-01
10.30000000  5.88229643084241e-01 4.11770356915759e-01
10.40000000  5.86778891573257e-01 4.13221108426742e-01
10.50000000  5.85266220704311e-01 4.14733779295689e-01
10.60000000  5.83691769077792e-01 4.16308230922208e-01
10.70000000  5.82055690308636e-01 4.17944309691364e-01
10.80000000  5.80358136648205e-01 4.19641863351795e-01
10.90000000  5.78599259678783e-01 4.21400740321217e-01
11.00000000  5.76779180142404e-01 4.23220819857596e-01
11.10000000  5.74897934815982e-01 4.25102065184018e-01
11.20000000  5.72955556967927e-01 4.27044443032073e-01
11.30000000  5.70952081938213e-01 4.29047918061787e-01
11.40000000  5.68887547875916e-01 4.31112452124084e-01
11.50000000  5.66761994450302e-01 4.33238005549698e-01
11.60000000  5.64575463525926e-01 4.35424536474073e-01
11.70000000  5.62328002073021e-01 4.37671997926979e-01
11.80000000  5.60019662907713e-01 4.39980337092287e-01
11.90000000  5.57650519934628e-01 4.42349480065372e-01
12.00000000  5.55220958602958e-01 4.44779041397042e-01
12.10000000  5.52731494703124e-01 4.47268505296876e-01
12.20000000  5.50182653586515e-01 4.49817346413485e-01
12.30000000  5.47574970802666e-01 4.52425029197334e-01
12.40000000  5.44909012061185e-01 4.55090987938815e-01
12.50000000  5.42185458963444e-01 4.57814541036556e-01
12.60000000  5.39405020949400e-01 4.60594979050600e-01
12.70000000  5.36568420234180e-01 4.63431579765820e-01
12.80000000  5.33676392273877e-01 4.66323607726123e-01
12.90000000  5.30729552006802e-01 4.69270447993198e-01
13.00000000  5.27728248906957e-01 4.72271751093043e-01
13.10000000  5.24672837843489e-01 4.75327162156511e-01
13.20000000  5.21563688179812e-01 4.78436311820188e-01
13.30000000  5.18401185166983e-01 4.81598814833017e-01
13.40000000  5.15185973229769e-01 4.84814026770231e-01
13.50000000  5.11918900922311e-01 4.88081099077689e-01
13.60000000  5.08600832901394e-01 4.91399167098606e-01
13.70000000  5.05232650053811e-01 4.94767349946189e-01
13.80000000  5.01815260811267e-01 4.98184739188732e-01
13.90000000  4.98349732372625e-01 5.01650267627375e-01
14.00000000  4.94837191398174e-01 5.05162808601825e-01
14.10000000  4.91278780734156e-01 5.08721219265844e-01
14.20000000  4.87675659221836e-01 5.12324340778163e-01
14.30000000  4.84029020422218e-01 5.15970979577782e-01
14.40000000  4.80340149044833e-01 5.19659850955166e-01
14.50000000  4.76610352659967e-01 5.23389647340032e-01
14.60000000  4.72840953370971e-01 5.27159046629028e-01
14.70000000  4.69033287317086e-01 5.30966712682914e-01
14.80000000  4.65188516703846e-01 5.34811483296154e-01
14.90000000  4.61307522289839e-01 5.38692477710160e-01
15.00000000  4.57391194561845e-01 5.42608805438155e-01
15.10000000  4.53440436938587e-01 5.46559563061413e-01
15.20000000  4.49456172592592e-01 5.50543827407408e-01
15.30000000  4.45439747037660e-01 5.54560252962340e-01
15.40000000  4.41392753186025e-01 5.58607246813974e-01
15.50000000  4.37316792634142e-01 5.62683207365858e-01
15.60000000  4.33213474697526e-01 5.66786525302473e-01
15.70000000  4.29084420228091e-01 5.70915579771909e-01
15.80000000  4.24931296509015e-01 5.75068703490985e-01
15.90000000  4.20755784442154e-01 5.79244215557846e-01
16.00000000  4.16559568119199e-01 5.83440431880800e-01
16.10000000  4.12344333659436e-01 5.87655666340564e-01
16.20000000  4.08111738450034e-01 5.91888261549965e-01
16.30000000  4.03863350865959e-01 5.96136649134041e-01
16.40000000  3.99600732420391e-01 6.00399267579609e-01
16.50000000  3.95325442662188e-01 6.04674557337811e-01
16.60000000  3.91039038036261e-01 6.08960961963739e-01
16.70000000  3.86742969369814e-01 6.13257030630186e-01
16.80000000  3.82438564361643e-01 6.17561435638356e-01
16.90000000  3.78127145711828e-01 6.21872854288172e-01
17.00000000  3.73810030352053e-01 6.26189969647947e-01
17.10000000  3.69488542982129e-01 6.30511457017871e-01
17.20000000  3.65164371108457e-01 6.34835628891543e-01
17.30000000  3.60839352302707e-01 6.39160647697293e-01
17.40000000  3.56515309464356e-01 6.43484690535643e-01
17.50000000  3.52194049493008e-01 6.47805950506992e-01
17.60000000  3.47877366779790e-01 6.52122633220210e-01
17.70000000  3.43567065824824e-01 6.56432934175176e-01
17.80000000  3.39264935857506e-01 6.60735064142494e-01
17.90000000  3.34972744795312e-01 6.65027255204688e-01
18.00000000  3.30692238051856e-01 6.69307761948144e-01
18.10000000  3.26424997170683e-01 6.73575002829317e-01
18.20000000  3.22172261695875e-01 6.77827738304125e-01
18.30000000  3.17935238892743e-01 6.82064761107257e-01
18.40000000  3.13715115696077e-01 6.86284884303923e-01
18.50000000  3.09513058387065e-01 6.90486941612935e-01
18.60000000  3.05330357714225e-01 6.94669642285776e-01
18.70000000  3.01168404776183e-01 6.98831595223817e-01
18.80000000  2.97028564644857e-01 7.02971435355143e-01
18.90000000  2.92912175822580e-01 7.07087824177420e-01
19.00000000  2.88820558489999e-01 7.11179441510001e-01
19.10000000  2.84755133794296e-01 7.15244866205704e-01
19.20000000  2.80717335670976e-01 7.19282664329024e-01
19.30000000  2.76708567233385e-01 7.23291432766615e-01
19.40000000  2.72730200429890e-01 7.27269799570110e-01
19.50000000  2.68783577179143e-01 7.31216422820857e-01
19.60000000  2.64870013999901e-01 7.35129986000099e-01
19.70000000  2.60990796558514e-01 7.39009203441486e-01
19.80000000  2.57147178902973e-01 7.42852821097027e-01
19.90000000  2.53340383500849e-01 7.46659616499151e-01
20.00000000  2.49571400327922e-01 7.50428599672078e-01
20.10000000  2.45840846065794e-01 7.54159153934206e-01
20.20000000  2.42149311122809e-01 7.57850688877191e-01
20.30000000  2.38497366555938e-01 7.61502633444062e-01
20.40000000  2.34885568380029e-01 7.65114431619971e-01
20.50000000  2.31314741004586e-01 7.68685258995414e-01
20.60000000  2.27785867124099e-01 7.72214132875901e-01
20.70000000  2.24299903756183e-01 7.75700096243817e-01
20.80000000  2.20857782989779e-01 7.79142217010221e-01
20.90000000  2.17460408839918e-01 7.82539591160082e-01
21.00000000  2.14108624220610e-01 7.85891375779390e-01
21.10000000  2.10803241377996e-01 7.89196758622004e-01
21.20000000  2.07545052609586e-01 7.92454947390414e-01
21.30000000  2.04334831367229e-01 7.95665168632772e-01
21.40000000  2.01173302701168e-01 7.98826697298832e-01
21.50000000  1.98061075088512e-01 8.01938924911488e-01
21.60000000  1.94998737057516e-01 8.05001262942484e-01
21.70000000  1.91986866643723e-01 8.08013133356277e-01
21.80000000  1.89026032813469e-01 8.10973967186531e-01
21.90000000  1.86116646900477e-01 8.13883353099523e-01
22.00000000  1.83258924879204e-01 8.16741075120796e-01
22.10000000  1.80453086250434e-01 8.19546913749566e-01
22.20000000  1.77699356573626e-01 8.22300643426375e-01
22.30000000  1.74997976681330e-01 8.25002023318670e-01
22.40000000  1.72349434757075e-01 8.27650565242925e-01
22.50000000  1.69754336742703e-01 8.30245663257297e-01
22.60000000  1.67213291184983e-01 8.32786708815017e-01
22.70000000  1.64726910884501e-01 8.35273089115500e-01
22.80000000  1.62295803599275e-01 8.37704196400726e-01
22.90000000  1.59920511626127e-01 8.40079488373873e-01
23.00000000  1.57601574459896e-01 8.42398425540104e-01
23.10000000  1.55339544177534e-01 8.44660455822466e-01
23.20000000  1.53134987087775e-01 8.46865012912225e-01
23.30000000  1.50988393124949e-01 8.49011606875051e-01
23.40000000  1.48900043214827e-01 8.51099956785173e-01
23.50000000  1.46870235754064e-01 8.53129764245936e-01
23.60000000  1.44899299442543e-01 8.55100700557457e-01
23.70000000  1.42987594948468e-01 8.57012405051532e-01
23.80000000  1.41135519578229e-01 8.58864480421771e-01
23.90000000  1.39343507781013e-01 8.60656492218987e-01
24.00000000  1.37612029275201e-01 8.62387970724799e-01
24.10000000  1.35941590548699e-01 8.64058409451301e-01
24.20000000  1.34332739739963e-01 8.65667260260037e-01
24.30000000  1.32786122631262e-01 8.67213877368738e-01
24.40000000  1.31302442345597e-01 8.68697557654403e-01
24.50000000  1.29882438128059e-01 8.70117561871941e-01
24.60000000  1.28526886480475e-01 8.71473113519525e-01
24.70000000  1.27236588766733e-01 8.72763411233268e-01
24.80000000  1.26012319665219e-01 8.73987680334781e-01
24.90000000  1.24854884397112e-01 8.75145115602888e-01
25.00000000  1.23765128154939e-01 8.76234871845061e-01
25.10000000  1.22743936795522e-01 8.77256063204478e-01
25.20000000  1.21792120065222e-01 8.78207879934778e-01
25.30000000  1.20910313500783e-01 8.79089686499217e-01
25.40000000  1.20099203121883e-01 8.79900796878117e-01
25.50000000  1.19359531359140e-01 8.80640468640860e-01
25.60000000  1.18692098144963e-01 8.81307901855037e-01
25.70000000  1.18097844379102e-01 8.81902155620898e-01
25.80000000  1.17577818305930e-01 8.82422181694070e-01
25.90000000  1.17133112956482e-01 8.82866887043518e-01
26.00000000  1.16764866032203e-01 8.83235133967797e-01
26.10000000  1.16474253746122e-01 8.83525746253878e-01
26.20000000  1.16262429987248e-01 8.83737570012751e-01
26.30000000  1.16130571567212e-01 8.83869428432788e-01
26.40000000  1.16079895399362e-01 8.83920104600638e-01
26.50000000  1.16111657770532e-01 8.83888342229468e-01
26.60000000  1.16227129392941e-01 8.83772870607059e-01
26.70000000  1.16427530424502e-01 8.83572469575498e-01
26.80000000  1.16714108115864e-01 8.83285891884135e-01
26.90000000  1.17088143468477e-01 8.82911856531523e-01
27.00000000  1.17550949907997e-01 8.82449050092003e-01
27.10000000  1.18103793855375e-01 8.81896206144625e-01
27.20000000  1.18747866533024e-01 8.81252133466976e-01
27.30000000  1.19484398418060e-01 8.80515601581940e-01
27.40000000  1.20314658497727e-01 8.79685341502273e-01
27.50000000  1.21239953169866e-01 8.78760046830134e-01
27.60000000  1.22261645451597e-01 8.77738354548403e-01
27.70000000  1.23381128274349e-01 8.76618871725651e-01
27.80000000  1.24599805706685e-01 8.75400194293315e-01
27.90000000  1.25919090654289e-01 8.74080909345711e-01
28.00000000  1.27340389474376e-01 8.72659610525624e-01
28.10000000  1.28865013639755e-01 8.71134986360245e-01
28.20000000  1.30494252781376e-01 8.69505747218624e-01
28.30000000  1.32229391841540e-01 8.67770608158460e-01
28.40000000  1.34071708332799e-01 8.65928291667201e-01
28.50000000  1.36022438894898e-01 8.63977561105102e-01
28.60000000  1.38082725499464e-01 8.61917274500536e-01
28.70000000  1.40253694938496e-01 8.59746305061504e-01
28.80000000  1.42536460781903e-01 8.57463539218097e-01
28.90000000  1.44932120382772e-01 8.55067879617228e-01
29.00000000  1.47441719123717e-01 8.52558280876283e-01
29.10000000  1.50066246122486e-01 8.49933753877514e-01
29.20000000  1.52806666002806e-01 8.47193333997194e-01
29.30000000  1.55663915769126e-01 8.44336084230874e-01
29.40000000  1.58638897585956e-01 8.41361102414044e-01
29.50000000  1.61732390558850e-01 8.38267609441150e-01
29.60000000  1.64945087688024e-01 8.35054912311976e-01
29.70000000  1.68277624634023e-01 8.31722375365977e-01
29.80000000  1.71730576690351e-01 8.28269423309649e-01
29.90000000  1.75304437317017e-01 8.24695562682983e-01
30.00000000  1.78999532179455e-01 8.21000467820545e-01
30.10000000  1.82816097968422e-01 8.17183902031578e-01
30.20000000  1.86754294261549e-01 8.13245705738451e-01
30.30000000  1.90814200888232e-01 8.09185799111768e-01
30.40000000  1.94995826592783e-01 8.05004173407217e-01
30.50000000  1.99299126692600e-01 8.00700873307400e-01
30.60000000  2.03723986369068e-01 7.96276013630932e-01
30.70000000  2.08270217546188e-01 7.91729782453812e-01
30.80000000  2.12937556024893e-01 7.87062443975107e-01
30.90000000  2.17725561546556e-01 7.82274438453444e-01
31.00000000  2.22633627721498e-01 7.77366372278502e-01
31.10000000  2.27661050863643e-01 7.72338949136357e-01
31.20000000  2.32807028392219e-01 7.67192971607781e-01
31.30000000  2.38070649587009e-01 7.61929350412991e-01
31.40000000  2.43450801550003e-01 7.56549198449997e-01
31.50000000  2.48946233132442e-01 7.51053766867558e-01
31.60000000  2.54555583563360e-01 7.45444416436639e-01
31.70000000  2.60277381980741e-01 7.39722618019259e-01
31.80000000  2.66110028852936e-01 7.33889971147064e-01
31.90000000  2.72051740097204e-01 7.27948259902796e-01
32.00000000  2.78100611260891e-01 7.21899388739109e-01
32.10000000  2.84254625547219e-01 7.15745374452780e-01
32.20000000  2.90511654570565e-01 7.09488345429435e-01
32.30000000  2.96869537846338e-01 7.03130462153662e-01
32.40000000  3.03326136533423e-01 6.96673863466577e-01
32.50000000  3.09879218719186e-01 6.90120781280814e-01
32.60000000  3.16526458618275e-01 6.83473541381724e-01
32.70000000  3.23265433565334e-01 6.76734566434666e-01
32.80000000  3.30093408847662e-01 6.69906591152338e-01
32.90000000  3.37007421032219e-01 6.62992578967781e-01
33.00000000  3.44004403548270e-01 6.55995596451730e-01
33.10000000  3.51081189634193e-01 6.48918810365806e-01
33.20000000  3.58234510802815e-01 6.41765489197185e-01
33.30000000  3.65460964903675e-01 6.34539035096324e-01
33.40000000  3.72757050236200e-01 6.27242949763799e-01
33.50000000  3.80119178444143e-01 6.19880821555857e-01
33.60000000  3.87543678603170e-01 6.12456321396830e-01
33.70000000  3.95026817666016e-01 6.04973182333984e-01
33.80000000  4.02564838327432e-01 5.97435161672568e-01
33.90000000  4.10153919411642e-01 5.89846080588358e-01
34.00000000  4.17790177039305e-01 5.82209822960695e-01
34.10000000  4.25469669165165e-01 5.74530330834835e-01
34.20000000  4.33188465110466e-01 5.66811534889534e-01
34.30000000  4.40942662821621e-01 5.59057337178378e-01
34.40000000  4.48728318435522e-01 5.51271681564478e-01
34.50000000  4.56541450482726e-01 5.43458549517274e-01
34.60000000  4.64378035730450e-01 5.35621964269549e-01
34.70000000  4.72233802207020e-01 5.27766197792980e-01
34.80000000  4.80104355966529e-01 5.19895644033470e-01
34.90000000  4.87985282849801e-01 5.12014717150199e-01
35.00000000  4.95872154572259e-01 5.04127845427741e-01
35.10000000  5.03760534772649e-01 4.96239465227351e-01
35.20000000  5.11645984787144e-01 4.88354015212856e-01
35.30000000  5.19524070162641e-01 4.80475929837358e-01
35.40000000  5.27390366865167e-01 4.72609633134833e-01
35.50000000  5.35240467388340e-01 4.64759532611660e-01
35.60000000  5.43070082628014e-01 4.56929917371985e-01
35.70000000  5.50875169042632e-01 4.49124830957368e-01
35.80000000  5.58651721819654e-01 4.41348278180346e-01
35.90000000  5.66395770763744e-01 4.33604229236256e-01
36.00000000  5.74103384550087e-01 4.25896615449913e-01
36.10000000  5.81770599669162e-01 4.18229400330838e-01
36.20000000  5.89393437682291e-01 4.10606562317709e-01
36.30000000  5.96967975315261e-01 4.03032024684739e-01
